-45 21 65 9 -50 40 50 -86 36 2 -145 -152
-45 21 65 9 -50 40 50 -86 36 2 -145 -152
-79 7 85 13 -55 43 -24 -154 -149 -7 -155 -162
-89 -8 80 37 -82 46 -19 -150 -139 -73 -110 -77
-74 -3 70 49 -84 36 4 -140 -135 -68 -101 -66
-64 7 70 39 -72 33 -10 -150 -144 -59 -96 -61
-89 -22 66 29 -67 38 -15 -155 -144 -68 -105 -71
-89 -27 61 56 -77 22 -19 -150 -144 -73 -105 -71
-89 -32 56 59 -75 17 -24 -155 -154 -68 -105 -71
-84 -22 61 61 -72 12 -10 -150 -149 -73 -105 -71
-99 -12 86 54 -72 19 0 -145 -144 -73 -101 -70
-89 -27 61 56 -92 37 -5 -145 -144 -64 -96 -65
-89 -42 46 59 -75 17 -10 -146 -144 -64 -101 -65
-99 -27 71 66 -67 2 -10 -141 -135 -64 -96 -65
-79 2 80 64 -85 22 0 -141 -135 -59 -96 -60
-74 1 75 39 -79 41 0 -146 -144 -64 -101 -65
-94 -13 81 37 -74 38 -19 -165 -164 -73 -110 -73
-84 6 90 54 -87 34 -15 -165 -159 -93 -130 -93
-64 -13 51 39 -87 48 -29 -170 -169 -93 -125 -93
-84 -43 41 39 -57 19 -15 -161 -159 -98 -135 -102
-99 -38 61 64 -62 0 -10 -156 -159 -93 -120 -93
-79 10 89 69 -80 12 0 -153 -149 -88 -115 -88
-64 0 65 35 -84 50 14 -138 -139 -78 -115 -82
-55 0 56 32 -64 33 -15 -167 -159 -68 -105 -72
-74 0 75 27 -55 29 -15 -158 -154 -93 -125 -87
-40 -10 31 37 -74 38 -5 -153 -149 -83 -115 -77
-35 -19 17 25 -35 11 0 -153 -144 -73 -101 -62
-133 -24 110 27 -26 -1 -10 -158 -159 -68 -101 -57
-123 -19 105 78 -121 43 -19 -163 -165 -78 -110 -72
-103 -14 90 71 -114 43 19 -128 -131 -88 -115 -80
-147 -5 143 58 -96 38 19 -133 -136 -59 -86 -51
-74 -19 55 76 -145 69 9 -144 -140 -68 -96 -60
-16 -19 -3 46 -65 18 19 -129 -131 -73 -110 -75
-103 0 103 17 -7 -10 -5 -164 -155 -68 -101 -70
27 -10 -37 51 -103 52 -29 -188 -180 -93 -135 -104
101 0 -101 -8 31 -24 0 -159 -155 -112 -154 -123
-108 0 108 -49 100 -51 -44 -203 -204 -88 -125 -89
-172 14 186 55 -108 53 -68 -227 -223 -132 -169 -128
-99 -14 85 80 -179 99 4 -149 -145 -156 -193 -147
-69 -44 25 57 -92 35 28 -124 -121 -83 -105 -69
-128 -34 94 57 -47 -10 9 -141 -136 -53 -81 -50
-103 -29 74 82 -111 29 -5 -151 -151 -72 -96 -62
-69 -19 50 67 -89 22 9 -136 -132 -82 -110 -67
-113 -19 94 45 -60 15 0 -146 -132 -63 -91 -52
-113 -11 103 67 -104 37 -24 -166 -156 -63 -101 -57
-133 -25 109 62 -108 46 -5 -146 -137 -82 -120 -77
-152 -25 128 79 -121 42 -10 -161 -146 -63 -101 -62
-113 -11 103 89 -140 51 -10 -161 -146 -72 -110 -76
-84 -20 65 62 -108 46 -10 -161 -151 -77 -115 -81
-90 -20 70 52 -75 22 -24 -166 -161 -82 -115 -86
-100 -6 94 55 -80 25 -29 -171 -161 -87 -115 -90
-80 23 103 53 -97 44 -34 -181 -171 -87 -115 -90
-104 8 112 28 -91 62 -34 -176 -166 -91 -125 -95
-124 -30 94 48 -108 59 -39 -181 -166 -86 -115 -90
-109 8 117 77 -109 31 -44 -171 -156 -81 -115 -84
-60 -6 54 50 -113 61 -16 -157 -141 -71 -105 -69
-80 -25 55 33 -57 23 -35 -181 -166 -62 -91 -49
-90 -45 45 52 -67 14 -35 -186 -171 -81 -110 -69
-65 -41 25 67 -67 -1 -35 -181 -166 -86 -115 -74
-65 -12 54 52 -45 -8 -50 -188 -181 -81 -105 -64
-80 -12 69 38 -59 20 -55 -203 -190 -91 -115 -73
-56 3 60 45 -74 28 -55 -193 -181 -101 -130 -87
-70 36 105 26 -58 31 -40 -178 -156 -101 -125 -92
-80 27 106 16 -88 71 -25 -164 -146 -81 -115 -87
-80 3 82 26 -94 67 -45 -178 -166 -71 -115 -78
-90 6 96 38 -82 43 -50 -188 -171 -91 -135 -102
-104 -22 82 41 -94 52 -45 -188 -171 -101 -144 -105
-109 -22 87 62 -94 31 -55 -198 -181 -96 -135 -100
-100 -42 58 64 -99 33 -55 -194 -181 -106 -140 -105
-119 -61 58 70 -80 9 -50 -184 -171 -101 -135 -100
-109 -37 72 89 -89 0 -35 -170 -156 -91 -120 -90
-109 6 115 74 -90 18 -20 -150 -141 -71 -105 -71
-75 30 105 52 -112 61 -17 -150 -137 -57 -86 -55
-36 21 57 23 -90 68 -41 -174 -161 -52 -81 -50
-57 11 67 8 -46 40 -60 -194 -181 -76 -110 -80
-91 11 101 23 -61 40 -65 -194 -181 -96 -130 -99
-71 26 96 40 -95 57 -60 -189 -176 -101 -135 -99
-96 2 97 23 -83 61 -65 -194 -181 -95 -125 -94
-66 -8 57 47 -96 49 -60 -191 -181 -100 -130 -99
-81 11 91 37 -61 24 -46 -181 -171 -100 -135 -102
-91 21 111 35 -85 51 -51 -186 -177 -90 -120 -92
-105 -22 82 35 -100 66 -51 -186 -177 -100 -125 -102
-96 -8 87 64 -93 30 -51 -186 -177 -100 -130 -102
-57 -8 48 52 -91 39 -36 -172 -157 -95 -130 -102
-61 6 66 33 -52 20 -51 -186 -172 -80 -115 -82
-91 2 92 28 -63 36 -51 -186 -177 -95 -130 -101
-96 -22 73 45 -91 46 -51 -176 -167 -95 -130 -101
-110 -23 87 59 -84 24 -51 -177 -172 -90 -125 -96
-125 20 145 66 -98 31 -26 -163 -157 -90 -125 -101
-110 -28 82 52 -134 82 -12 -143 -142 -75 -110 -81
-76 -23 53 69 -95 26 -26 -163 -162 -61 -91 -67
-52 -9 43 49 -64 14 -17 -148 -152 -80 -110 -84
-52 -14 37 30 -47 16 -7 -138 -142 -75 -110 -84
-52 -23 28 33 -44 11 -17 -148 -147 -65 -101 -75
-52 -9 42 37 -40 3 -26 -163 -167 -75 -115 -79
-71 -4 66 30 -47 16 -36 -173 -172 -90 -130 -99
-115 -28 86 37 -68 31 -26 -163 -167 -100 -140 -109
-140 -33 106 71 -100 29 -21 -165 -167 -95 -135 -104
-120 -33 86 86 -123 36 -12 -150 -152 -90 -125 -103
-91 -9 81 76 -103 26 2 -140 -147 -80 -110 -93
-86 -14 71 50 -86 36 2 -145 -152 -70 -105 -83
-91 -15 76 50 -78 28 -7 -155 -162 -75 -110 -88
-110 -34 76 52 -83 31 -2 -155 -157 -85 -120 -93
-110 -34 76 71 -93 20 -2 -155 -162 -80 -115 -88
-105 -24 81 71 -93 20 -12 -170 -167 -85 -120 -91
-91 -34 57 64 -93 28 -2 -160 -158 -95 -125 -101
-76 -29 47 63 -73 11 -12 -166 -168 -80 -115 -91
-76 38 114 53 -60 8 -18 -176 -173 -90 -120 -101
-76 -1 76 19 -94 75 -22 -180 -183 -100 -135 -106
-76 -45 32 38 -75 37 -32 -190 -192 -105 -135 -111
-96 -25 72 60 -53 -6 -13 -176 -173 -109 -140 -119
-61 23 85 60 -83 23 -3 -166 -168 -95 -125 -105
-76 -1 76 19 -72 54 -3 -161 -163 -90 -120 -100
-105 -35 71 38 -75 37 -3 -166 -163 -85 -125 -100
-101 -35 67 70 -87 18 -3 -171 -163 -84 -125 -100
-91 -11 81 68 -83 16 -13 -173 -168 -89 -125 -100
-81 -11 71 51 -85 35 -27 -182 -173 -94 -130 -103
-91 -35 57 46 -75 30 -18 -178 -173 -89 -125 -103
-96 -16 81 63 -73 11 -8 -168 -164 -84 -120 -98
-96 -1 96 56 -87 32 -3 -158 -159 -74 -105 -88
-96 -16 81 48 -95 47 -13 -163 -164 -69 -101 -78
-86 -6 81 56 -87 32 -3 -168 -164 -74 -101 -83
-91 -1 91 46 -82 37 1 -158 -154 -74 -105 -83
-76 -25 50 46 -90 45 -13 -173 -164 -69 -105 -77
-76 -35 40 50 -63 13 -32 -187 -184 -79 -115 -92
-91 -35 55 55 -58 3 -13 -174 -169 -99 -135 -107
-105 -25 79 63 -73 11 -3 -164 -159 -83 -120 -92
-115 -20 94 65 -92 28 -18 -169 -154 -78 -110 -87
-110 3 112 67 -104 37 -13 -169 -159 -73 -105 -92
-144 3 146 53 -111 57 -22 -183 -179 -68 -110 -95
-164 12 176 70 -145 74 -22 -193 -188 -88 -130 -114
-125 36 161 75 -170 94 1 -183 -179 -98 -144 -129
-76 36 112 44 -143 99 21 -169 -154 -103 -154 -144
-203 -7 196 19 -94 74 25 -159 -135 -88 -144 -149
-232 -21 211 104 -199 95 30 -156 -120 -68 -135 -144
-218 2 220 126 -221 95 64 -132 -96 -59 -125 -143
-198 7 205 107 -219 110 69 -146 -105 -10 -71 -94
-159 -31 128 95 -201 105 50 -151 -105 14 -37 -65
-120 -41 79 94 -143 48 64 -117 -66 53 6 -35
-115 -46 69 80 -99 18 79 -44 21 106 50 -11
-66 -7 59 80 -92 11 99 28 138 185 113 32
-3 36 39 38 -62 25 128 131 284 316 230 122
69 65 -4 -15 -21 37 143 229 445 478 357 215
162 100 -62 -65 36 30 128 297 592 668 519 332
250 99 -150 -129 112 18 84 335 694 883 738 532
333 60 -272 -173 200 -25 60 403 802 1059 919 708
406 79 -326 -195 302 -106 35 482 924 1195 1051 835
469 74 -395 -241 366 -123 1 545 1022 1337 1178 967
503 74 -429 -271 432 -160 -37 584 1061 1400 1222 1031
508 69 -439 -288 466 -177 -61 604 1026 1352 1158 1017
488 45 -443 -288 474 -185 -91 550 924 1182 991 924
435 -57 -492 -266 466 -199 -115 433 719 972 776 787
347 -170 -516 -188 464 -274 -144 228 392 698 513 597
313 -292 -605 -88 432 -343 -154 -22 -18 327 181 352
278 -355 -633 -10 459 -448 -140 -242 -398 -126 -224 32
273 -390 -663 38 455 -494 -81 -262 -496 -570 -644 -328
244 -395 -639 58 468 -526 -37 -223 -472 -756 -834 -528
225 -424 -649 75 441 -517 -22 -227 -492 -766 -883 -616
200 -492 -692 99 437 -536 -32 -286 -565 -800 -941 -699
171 -487 -658 146 446 -592 -22 -315 -590 -888 -1034 -816
103 -473 -576 158 414 -572 -4 -330 -604 -902 -1059 -869
44 -482 -526 185 339 -524 0 -364 -629 -897 -1054 -884
-28 -473 -445 219 285 -504 24 -360 -609 -902 -1059 -908
-72 -458 -386 250 208 -459 44 -360 -600 -883 -1049 -908
-67 -434 -367 265 157 -422 78 -336 -551 -863 -1039 -913
-141 -424 -283 250 150 -400 112 -277 -478 -814 -990 -889
-160 -399 -239 282 71 -353 142 -224 -404 -746 -922 -839
-126 -355 -229 279 39 -319 181 -170 -346 -683 -868 -799
-189 -326 -137 240 51 -292 205 -131 -302 -639 -819 -755
-209 -287 -78 257 -26 -231 239 -77 -243 -600 -775 -730
-268 -268 0 248 -65 -182 308 5 -155 -556 -731 -696
-336 -224 112 268 -134 -134 356 63 -102 -482 -658 -623
-316 -209 107 280 -224 -56 405 125 -28 -434 -604 -579
-282 -229 54 262 -211 -51 435 154 10 -360 -531 -515
-238 -205 34 255 -168 -87 444 169 29 -316 -487 -480
-243 -195 49 221 -136 -85 469 208 63 -297 -468 -466
-248 -200 49 219 -146 -72 488 232 88 -253 -424 -432
-258 -181 78 224 -148 -75 521 276 137 -228 -404 -412
-297 -190 108 220 -168 -51 546 291 142 -194 -370 -393
-263 -190 74 244 -202 -41 575 311 151 -185 -351 -371
-258 -181 78 227 -168 -58 624 345 171 -185 -351 -371
-204 -186 19 220 -168 -52 624 319 132 -170 -336 -361
-92 -225 -132 195 -111 -84 634 300 98 -204 -360 -381
-258 -269 -10 159 20 -179 619 256 23 -224 -370 -381
-277 -273 3 264 -124 -140 570 178 -44 -272 -409 -410
-287 -259 27 275 -141 -134 639 222 4 -312 -434 -429
-307 -259 47 273 -158 -115 644 202 -24 -238 -346 -346
-312 -284 28 283 -178 -106 619 168 -49 -247 -346 -341
-248 -260 -12 298 -171 -128 600 139 -73 -252 -351 -341
-214 -201 13 254 -119 -136 585 119 -73 -252 -341 -331
-194 -191 3 207 -114 -94 531 75 -98 -237 -316 -307
-233 -235 -2 192 -99 -94 458 15 -146 -237 -316 -307
-199 -177 22 234 -116 -118 434 0 -146 -262 -336 -314
-165 -128 37 188 -111 -77 434 10 -122 -247 -316 -295
-131 -133 -2 146 -102 -45 380 -28 -156 -203 -272 -251
-175 -100 76 132 -65 -67 316 -67 -176 -208 -272 -251
-200 -124 76 137 -126 -11 287 -67 -167 -208 -268 -241
-171 -105 66 161 -138 -23 277 -67 -147 -184 -233 -217
-112 -105 7 137 -119 -19 272 -63 -138 -144 -194 -181
-122 -85 37 107 -60 -48 219 -82 -147 -119 -171 -157
-93 -51 42 102 -80 -23 165 -108 -167 -124 -176 -162
-98 -46 52 71 -68 -4 155 -108 -152 -129 -181 -172
-93 -61 32 71 -75 3 121 -108 -143 -109 -156 -147
-107 -51 56 76 -63 -14 92 -103 -133 -90 -137 -128
-93 -12 81 78 -82 2 62 -108 -128 -70 -117 -106
-83 -31 52 51 -87 34 48 -108 -123 -56 -103 -92
-68 -31 37 56 -68 10 33 -112 -128 -51 -98 -82
-44 -7 37 48 -53 2 23 -112 -123 -51 -93 -77
-49 -7 42 24 -41 14 -5 -137 -147 -41 -83 -67
-49 -36 13 27 -46 17 -29 -149 -157 -56 -93 -82
-49 -17 32 41 -31 -12 -34 -158 -157 -60 -103 -86
-78 -3 75 34 -40 7 -34 -158 -147 -60 -98 -81
-156 -26 130 41 -76 35 -40 -158 -143 -56 -88 -71
-112 -7 105 92 -142 51 -30 -149 -133 -51 -83 -66
-49 21 69 60 -108 48 -16 -129 -113 -36 -73 -51
-39 17 55 15 -59 45 -21 -134 -118 -17 -54 -32
-54 6 60 12 -47 36 -25 -139 -123 -17 -54 -32
-59 -4 55 24 -57 33 -30 -149 -128 -21 -59 -35
-73 1 74 32 -57 26 -45 -153 -133 -26 -59 -35
-54 6 60 36 -73 38 -64 -164 -147 -31 -59 -45
-34 16 50 24 -57 33 -64 -164 -143 -36 -63 -49
-16 40 55 9 -42 33 -60 -159 -133 -31 -63 -45
-25 30 54 -12 -35 48 -64 -159 -133 -26 -54 -40
-35 1 35 -2 -39 42 -74 -164 -138 -21 -54 -34
-25 -18 6 17 -34 18 -69 -159 -128 -20 -54 -34
-21 -8 12 21 -15 -5 -94 -174 -147 -11 -44 -24
-30 -8 21 14 -16 2 -94 -179 -152 -30 -63 -39
-30 -4 25 19 -25 7 -89 -169 -147 -35 -68 -48
-25 1 25 17 -27 11 -84 -166 -138 -25 -59 -39
-25 16 40 12 -24 12 -84 -166 -138 -20 -44 -32
-25 16 40 4 -32 27 -89 -171 -143 -20 -44 -32
-25 15 40 4 -32 27 -89 -171 -143 -20 -49 -32
-30 15 45 4 -32 27 -94 -171 -138 -16 -44 -27
-16 39 55 7 -37 30 -99 -171 -143 -11 -44 -17
-11 39 50 -12 -35 47 -108 -181 -153 -16 -49 -22
-2 19 21 -14 -30 44 -128 -181 -148 -20 -49 -26
-25 15 40 -9 -11 20 -133 -186 -144 -20 -49 -21
-40 10 50 4 -32 27 -133 -186 -144 -20 -49 -26
-21 18 40 14 -44 29 -128 -182 -144 -20 -49 -26
-16 18 35 1 -30 28 -133 -177 -144 -11 -34 -21
-2 18 21 -2 -25 26 -123 -177 -139 -6 -24 -11
3 23 21 -9 -11 19 -133 -177 -139 -1 -20 -6
-16 38 55 -14 -8 21 -138 -177 -134 -1 -24 -4
-21 28 50 -12 -35 46 -133 -182 -139 3 -20 0
-21 23 45 -4 -35 38 -123 -167 -134 -1 -24 -4
-25 33 57 -2 -32 33 -123 -162 -124 8 -10 15
-35 43 77 -4 -41 45 -128 -157 -119 18 -1 29
8 14 5 -4 -56 60 -123 -159 -119 27 14 39
47 28 -20 -11 1 10 -123 -155 -119 32 23 49
57 82 24 -37 33 4 -138 -164 -124 37 23 49
66 77 10 -69 16 53 -147 -169 -129 32 19 44
76 33 -44 -71 27 44 -162 -179 -139 27 14 40
57 18 -40 -54 59 -5 -167 -179 -134 18 4 35
42 38 -5 -37 48 -10 -157 -174 -124 23 14 54
66 77 10 -40 23 16 -147 -164 -119 32 19 61
76 33 -44 -71 27 43 -157 -164 -124 37 23 66
105 9 -97 -54 59 -6 -177 -185 -139 32 23 61
130 33 -98 -57 100 -44 -172 -175 -129 18 9 46
76 77 0 -81 113 -33 -182 -175 -129 32 28 61
61 76 15 -76 37 38 -172 -170 -124 37 33 61
125 96 -29 -69 22 45 -147 -146 -101 48 38 56
86 56 -30 -111 76 33 -167 -156 -110 67 58 72
42 61 19 -71 57 13 -196 -185 -140 67 53 67
169 81 -88 -52 11 40 -167 -156 -106 33 23 52
198 66 -132 -125 128 -4 -148 -141 -96 67 58 96
37 61 24 -132 164 -33 -231 -209 -164 87 82 121
101 42 -59 -49 6 42 -246 -211 -154 28 28 62
140 52 -88 -72 79 -8 -168 -148 -91 38 43 88
66 81 15 -96 113 -18 -197 -172 -120 111 126 171
125 96 -29 -74 25 48 -207 -182 -120 92 111 152
105 100 -5 -111 76 33 -197 -167 -101 92 111 157
169 105 -64 -103 54 47 -217 -182 -110 116 136 181
164 110 -54 -137 116 20 -212 -162 -91 112 131 176
130 115 -15 -137 108 28 -241 -192 -121 142 155 212
115 65 -49 -123 72 50 -246 -197 -121 117 136 187
135 114 -20 -91 81 8 -241 -178 -97 112 131 177
154 129 -25 -125 77 47 -227 -173 -87 137 155 197
179 124 -55 -142 88 53 -261 -198 -116 151 170 216
198 99 -99 -152 116 35 -266 -207 -121 132 160 202
223 143 -80 -149 147 1 -266 -203 -111 132 165 214
193 163 -30 -184 150 31 -261 -193 -102 147 185 238
164 133 -30 -177 111 66 -280 -217 -121 166 204 262
188 181 -6 -148 97 52 -291 -212 -111 147 194 253
193 191 -1 -184 97 88 -286 -212 -111 166 214 272
208 181 -26 -191 97 95 -311 -227 -126 171 214 277
218 147 -70 -194 117 78 -311 -229 -126 161 204 267
213 118 -94 -182 144 39 -301 -229 -126 156 209 268
188 123 -64 -165 153 12 -301 -224 -121 161 209 273
193 123 -69 -155 126 29 -311 -224 -121 166 214 273
262 128 -133 -157 131 26 -296 -214 -116 171 224 278
271 147 -123 -194 197 -3 -301 -219 -121 181 233 293
252 128 -123 -208 197 11 -325 -239 -136 176 228 288
242 89 -152 -189 187 2 -340 -244 -136 161 214 275
252 123 -128 -165 197 -32 -325 -229 -121 161 214 280
285 152 -133 -187 190 -3 -301 -210 -97 171 228 295
261 118 -143 -218 209 9 -316 -220 -111 195 253 319
231 128 -103 -189 202 -13 -340 -245 -136 186 238 304
241 167 -74 -179 167 12 -330 -235 -131 162 213 280
212 172 -40 -204 158 46 -325 -230 -126 162 223 281
197 142 -55 -192 126 65 -335 -235 -136 162 223 281
187 133 -54 -169 126 43 -320 -225 -126 152 208 271
178 133 -45 -160 121 39 -306 -210 -107 162 213 271
153 128 -25 -155 112 43 -306 -206 -102 172 223 281
168 122 -45 -140 89 51 -301 -212 -111 177 223 286
197 117 -79 -145 107 38 -306 -217 -116 167 208 273
192 136 -55 -157 138 18 -316 -222 -121 157 198 263
168 141 -28 -164 124 39 -316 -227 -121 148 184 249
178 141 -38 -155 97 56 -306 -222 -126 138 179 239
178 117 -62 -160 107 51 -291 -212 -126 133 174 229
163 93 -71 -148 119 27 -291 -212 -126 123 159 220
148 107 -42 -128 116 11 -281 -203 -121 113 149 205
139 107 -33 -128 94 32 -262 -188 -103 123 149 206
114 88 -27 -123 85 37 -257 -178 -93 128 159 206
104 102 -3 -101 70 30 -242 -179 -93 133 154 206
70 88 17 -103 53 49 -228 -165 -78 123 140 191
46 102 55 -79 26 52 -218 -160 -73 133 144 191
60 112 51 -73 -4 78 -218 -160 -83 128 135 181
80 106 26 -85 5 81 -194 -145 -68 118 125 169
109 106 -3 -93 27 66 -194 -140 -68 128 130 164
90 96 6 -107 56 52 -194 -140 -64 118 120 144
70 87 17 -93 42 51 -194 -135 -59 109 105 125
75 96 21 -78 27 52 -194 -130 -54 104 91 115
51 72 21 -85 27 59 -170 -118 -44 99 81 105
41 92 51 -61 15 47 -155 -108 -39 104 81 106
51 100 50 -66 -4 72 -141 -103 -34 99 71 97
21 32 12 -76 1 76 -136 -98 -29 94 61 82
12 37 26 -27 5 23 -150 -103 -39 89 52 72
12 37 26 -25 -6 32 -136 -98 -34 69 32 53
-3 32 36 -25 -6 32 -126 -93 -34 69 27 38
-3 37 41 -15 -19 35 -107 -84 -34 65 27 30
12 56 45 -17 -21 39 -107 -84 -39 60 18 17
12 42 31 -34 -16 50 -102 -79 -34 50 8 2
36 56 21 -27 -9 36 -77 -65 -20 50 -2 -3
7 51 45 -46 8 38 -63 -60 -20 55 -2 -3
-12 37 50 -29 -18 48 -58 -55 -15 51 -11 -13
-26 22 49 -13 -30 43 -53 -55 -20 51 -11 -13
-70 -16 55 2 -37 35 -53 -60 -25 41 -21 -21
-70 -12 58 42 -62 19 -53 -65 -40 31 -30 -31
-56 -12 44 40 -64 23 -43 -70 -50 12 -50 -51
-26 12 38 33 -50 15 -33 -70 -50 3 -55 -61
-7 8 15 7 -32 24 -38 -75 -60 3 -60 -61
-22 -2 20 -1 -11 11 -43 -82 -60 -7 -69 -75
-51 -2 49 11 -21 8 -19 -62 -50 -16 -74 -73
-66 8 73 26 -50 23 -19 -67 -55 -7 -64 -63
-66 -21 44 28 -69 40 -14 -72 -60 -16 -79 -68
-57 -35 21 42 -54 11 -33 -82 -79 -26 -84 -78
-42 -32 10 45 -38 -8 -19 -77 -74 -45 -99 -88
-37 -17 20 35 -25 -11 -19 -82 -84 -45 -99 -93
-37 -17 20 25 -28 1 -28 -82 -84 -54 -108 -106
-52 -36 16 25 -28 1 -19 -82 -84 -54 -108 -111
-62 -17 45 42 -33 -10 -24 -88 -95 -54 -113 -116
-57 -3 54 40 -53 14 -19 -83 -85 -59 -123 -126
-42 11 53 30 -55 25 -14 -83 -85 -54 -118 -116
-52 2 54 16 -47 32 -28 -102 -95 -50 -118 -116
-71 -36 35 25 -52 28 -33 -107 -100 -59 -128 -131
-57 -41 16 54 -52 -1 -9 -97 -90 -69 -128 -129
-96 -41 55 49 -36 -13 -19 -112 -105 -59 -118 -119
-96 -46 50 69 -75 6 -38 -132 -124 -69 -133 -134
-62 -17 45 71 -72 1 -5 -92 -90 -84 -143 -143
-57 -8 49 40 -53 13 10 -83 -75 -50 -104 -104
-76 -14 63 33 -52 19 -9 -99 -95 -30 -89 -85
-71 6 78 45 -69 24 -19 -104 -95 -50 -104 -94
-52 10 63 32 -74 41 -9 -94 -80 -54 -104 -94
6 20 15 21 -57 36 -19 -109 -95 -40 -94 -84
-52 1 54 -13 -4 17 -28 -114 -100 -50 -104 -98
-32 1 34 25 -52 27 -24 -119 -105 -54 -108 -108
20 10 -9 15 -32 17 5 -104 -90 -54 -108 -108
-53 -5 47 -15 15 0 -14 -119 -114 -45 -94 -92
-53 -38 14 28 -50 22 -43 -138 -129 -64 -118 -116
-92 -19 72 44 -33 -11 -25 -115 -105 -79 -133 -131
-150 -5 144 54 -82 27 -10 -105 -95 -53 -108 -116
29 5 -25 76 -147 70 14 -76 -70 -49 -108 -111
176 5 -172 -18 27 -9 38 -56 -41 -29 -84 -87
-53 0 52 -91 174 -82 -25 -120 -110 -5 -64 -61
-111 0 110 25 -52 27 -98 -178 -163 -58 -123 -115
-146 5 150 54 -110 56 -20 -105 -85 -112 -167 -154
-107 9 115 69 -148 78 -1 -86 -70 -34 -84 -81
-48 -5 42 48 -111 63 14 -66 -51 -14 -60 -56
-48 -19 28 25 -45 19 -6 -86 -66 5 -40 -37
-28 9 36 32 -38 5 -20 -97 -75 -5 -50 -52
0 24 23 9 -32 23 -20 -102 -80 -19 -64 -64
-24 19 42 -13 -11 23 -29 -107 -85 -19 -69 -69
-38 24 61 2 -33 30 -44 -122 -100 -24 -74 -74
-38 19 56 6 -49 42 -34 -117 -95 -39 -94 -84
-53 5 57 9 -47 37 -25 -102 -80 -34 -84 -74
-19 19 37 23 -55 31 -34 -107 -85 -24 -69 -54
-5 34 38 0 -28 28 -25 -97 -70 -19 -64 -53
-14 44 57 -14 -21 36 -21 -102 -75 -5 -45 -34
-43 34 76 -15 -35 50 -35 -108 -85 -5 -40 -29
-28 33 61 5 -59 54 -35 -103 -76 -10 -45 -34
-58 47 105 -3 -44 46 -35 -98 -71 -5 -40 -29
-48 43 91 5 -81 75 -30 -98 -71 0 -40 -24
-38 33 71 2 -69 66 -30 -98 -67 5 -35 -17
-48 43 91 2 -54 51 -30 -98 -71 14 -30 -12
-67 28 95 2 -69 66 -30 -98 -67 9 -30 -22
-67 13 80 19 -81 61 -35 -94 -62 9 -30 -22
-58 47 105 26 -73 46 -30 -84 -47 14 -30 -22
-19 52 71 5 -81 75 -40 -96 -57 19 -21 -12
10 72 61 -17 -45 61 -50 -105 -71 9 -25 -21
19 87 67 -41 -26 66 -65 -120 -86 5 -30 -31
0 101 100 -53 -24 77 -69 -135 -101 -10 -45 -41
-9 82 90 -51 -50 100 -74 -144 -111 -24 -60 -46
-9 8 16 -37 -50 86 -84 -154 -115 -29 -60 -46
-5 17 22 0 -13 12 -84 -149 -111 -29 -64 -46
-5 27 32 -7 -14 20 -60 -120 -86 -24 -60 -41
-9 7 16 -12 -19 30 -55 -125 -91 0 -35 -19
-38 -12 26 0 -13 11 -74 -144 -111 -10 -40 -29
-48 3 51 24 -32 6 -60 -136 -106 -23 -60 -44
-77 22 99 21 -50 26 -40 -121 -96 -18 -45 -34
-82 56 138 26 -88 60 -40 -116 -91 -4 -35 -24
-53 41 95 12 -110 96 -35 -116 -91 -4 -35 -24
-48 -3 46 5 -74 68 -35 -116 -91 -4 -30 -23
-19 -3 17 24 -47 21 -35 -116 -86 -4 -35 -23
-5 2 8 10 -18 7 -30 -111 -86 -4 -30 -18
-28 75 104 0 -7 5 -55 -136 -107 -4 -30 -18
-58 80 139 -25 -66 89 -65 -141 -121 -23 -55 -33
-53 41 95 -12 -99 109 -74 -152 -136 -33 -64 -52
-24 -22 3 5 -74 68 -65 -147 -131 -52 -84 -70
-33 -3 31 21 -14 -10 -55 -138 -126 -48 -79 -70
-24 26 51 16 -32 14 -40 -123 -107 -37 -64 -55
-28 65 94 -2 -38 38 -35 -118 -102 -22 -50 -41
-24 26 51 -18 -60 79 -35 -123 -107 -17 -50 -36
-28 16 45 0 -37 38 -46 -138 -121 -22 -50 -41
-38 41 80 7 -36 30 -36 -128 -112 -37 -74 -55
-67 26 94 -1 -58 60 -31 -133 -112 -32 -64 -49
-58 -61 -2 21 -80 60 -56 -147 -126 -32 -69 -49
-48 2 51 60 -27 -31 -46 -134 -116 -47 -79 -64
-48 50 99 23 -49 26 -27 -119 -103 -37 -69 -54
-43 31 73 0 -73 74 -46 -148 -137 -22 -55 -40
-58 21 78 7 -58 53 -56 -158 -147 -56 -84 -74
-63 6 68 19 -68 50 -31 -134 -122 -66 -104 -86
-48 -8 39 29 -66 37 -27 -124 -113 -47 -79 -67
-53 5 58 28 -44 15 -17 -124 -108 -37 -79 -62
-48 25 73 24 -56 32 -22 -124 -113 -32 -69 -52
-53 20 73 12 -61 49 -27 -129 -113 -32 -69 -52
-72 10 82 16 -63 47 -22 -131 -117 -32 -69 -52
-87 1 88 31 -77 46 -22 -136 -117 -37 -74 -56
-97 15 112 43 -88 45 -12 -131 -117 -42 -74 -61
-82 5 87 41 -105 64 -12 -131 -122 -37 -69 -61
-58 1 59 38 -85 46 -12 -126 -113 -42 -74 -61
-28 15 43 28 -59 29 -17 -131 -117 -42 -74 -56
-34 15 48 7 -36 28 -27 -146 -127 -42 -79 -66
-49 -4 44 9 -41 31 -31 -146 -132 -56 -89 -64
-44 -4 39 26 -46 19 -36 -155 -137 -61 -99 -69
-49 20 68 23 -41 17 -36 -151 -132 -70 -105 -74
-59 25 83 14 -58 43 -22 -142 -127 -65 -100 -74
-73 0 73 16 -71 53 -22 -142 -132 -55 -95 -74
-54 0 54 35 -73 36 -27 -151 -137 -60 -100 -78
-44 0 44 26 -54 27 -31 -151 -142 -70 -100 -88
-34 9 43 21 -44 22 -36 -156 -147 -70 -100 -82
-44 24 68 12 -38 26 -31 -156 -147 -70 -100 -82
-64 -10 54 9 -56 46 -31 -151 -142 -65 -100 -77
-49 0 49 36 -59 22 -22 -147 -132 -60 -90 -68
-59 14 73 23 -49 24 -22 -147 -142 -55 -85 -58
-64 18 83 21 -66 43 -31 -149 -142 -65 -95 -73
-59 8 68 21 -73 51 -31 -149 -142 -65 -100 -71
-49 -11 39 25 -63 38 -17 -139 -137 -70 -105 -75
-49 -21 29 29 -44 13 -22 -139 -137 -60 -95 -71
-64 -25 40 34 -39 3 -12 -139 -127 -60 -90 -71
-59 -16 43 44 -52 7 -27 -153 -142 -55 -85 -71
-44 13 57 37 -51 13 -27 -153 -142 -60 -95 -80
-44 28 72 15 -51 35 -17 -144 -132 -60 -90 -79
-68 33 101 8 -58 50 -17 -144 -137 -55 -90 -70
-73 23 96 17 -85 67 -12 -140 -132 -55 -100 -74
-44 -11 33 24 -85 59 -8 -135 -122 -60 -100 -74
-64 -1 63 27 -39 11 -12 -140 -127 -55 -95 -70
-98 -21 77 32 -64 31 -27 -154 -148 -65 -100 -74
-73 23 96 59 -88 28 -17 -145 -138 -80 -114 -87
-117 18 135 24 -85 59 -8 -130 -128 -70 -100 -77
-127 -1 126 49 -126 76 -12 -145 -143 -60 -90 -68
23 18 -5 63 -127 62 2 -130 -123 -70 -100 -77
48 13 -35 -21 13 6 -3 -130 -123 -50 -85 -58
-103 18 121 -31 41 -11 -56 -179 -172 -46 -80 -53
-64 8 72 42 -112 69 -61 -186 -162 -94 -129 -97
106 3 -103 27 -68 40 -9 -127 -109 -99 -129 -91
-54 -2 53 -55 104 -50 -23 -156 -143 -46 -70 -32
-34 12 47 27 -54 26 -71 -200 -192 -70 -100 -62
-29 12 42 10 -41 30 -9 -137 -128 -119 -148 -111
-73 -12 62 8 -36 27 -18 -152 -148 -60 -85 -62
-117 -26 92 41 -68 25 -32 -156 -148 -80 -109 -86
-117 -2 116 70 -105 33 -32 -147 -138 -84 -114 -84
-59 12 72 58 -117 57 -13 -132 -123 -69 -100 -65
-59 2 62 22 -66 41 -13 -133 -123 -54 -85 -45
-44 7 52 27 -61 31 -32 -153 -143 -54 -85 -45
-44 17 62 17 -48 29 -32 -157 -148 -74 -105 -65
-64 12 77 13 -53 39 -52 -167 -157 -74 -109 -69
-49 22 72 25 -71 44 -47 -167 -157 -84 -119 -83
-49 12 62 13 -61 46 -32 -153 -148 -89 -119 -83
-49 -7 43 17 -56 36 -23 -148 -143 -79 -105 -78
-39 22 61 27 -46 17 -32 -157 -153 -69 -100 -78
-40 21 61 9 -51 41 -37 -167 -157 -84 -119 -88
-45 21 65 9 -50 40 -23 -154 -148 -93 -124 -98
-79 7 85 13 -55 43 -24 -154 -149 -74 -109 -77
-89 -8 80 37 -82 46 -19 -150 -139 -73 -110 -77
-74 -3 70 49 -84 36 4 -140 -135 -68 -101 -66
-64 7 70 39 -72 33 -10 -150 -144 -59 -96 -61
-89 -22 66 29 -67 38 -15 -155 -144 -68 -105 -71
-89 -27 61 56 -77 22 -19 -150 -144 -73 -105 -71
-89 -32 56 59 -75 17 -24 -155 -154 -68 -105 -71
-84 -22 61 61 -72 12 -10 -150 -149 -73 -105 -71
-99 -12 86 54 -72 19 0 -145 -144 -73 -101 -70
-89 -27 61 56 -92 37 -5 -145 -144 -64 -96 -65
-89 -42 46 59 -75 17 -10 -146 -144 -64 -101 -65
-99 -27 71 66 -67 2 -10 -141 -135 -64 -96 -65
-79 2 80 64 -85 22 0 -141 -135 -59 -96 -60
-74 1 75 39 -79 41 0 -146 -144 -64 -101 -65
-94 -13 81 37 -74 38 -19 -165 -164 -73 -110 -73
-84 6 90 54 -87 34 -15 -165 -159 -93 -130 -93
-64 -13 51 39 -87 48 -29 -170 -169 -93 -125 -93
-84 -43 41 39 -57 19 -15 -161 -159 -98 -135 -102
-99 -38 61 64 -62 0 -10 -156 -159 -93 -120 -93
-79 10 89 69 -80 12 0 -153 -149 -88 -115 -88
-64 0 65 35 -84 50 14 -138 -139 -78 -115 -82
-55 0 56 32 -64 33 -15 -167 -159 -68 -105 -72
-74 0 75 27 -55 29 -15 -158 -154 -93 -125 -87
-40 -10 31 37 -74 38 -5 -153 -149 -83 -115 -77
-35 -19 17 25 -35 11 0 -153 -144 -73 -101 -62
-133 -24 110 27 -26 -1 -10 -158 -159 -68 -101 -57
-123 -19 105 78 -121 43 -19 -163 -165 -78 -110 -72
-103 -14 90 71 -114 43 19 -128 -131 -88 -115 -80
-147 -5 143 58 -96 38 19 -133 -136 -59 -86 -51
-74 -19 55 76 -145 69 9 -144 -140 -68 -96 -60
-16 -19 -3 46 -65 18 19 -129 -131 -73 -110 -75
-103 0 103 17 -7 -10 -5 -164 -155 -68 -101 -70
27 -10 -37 51 -103 52 -29 -188 -180 -93 -135 -104
101 0 -101 -8 31 -24 0 -159 -155 -112 -154 -123
-108 0 108 -49 100 -51 -44 -203 -204 -88 -125 -89
-172 14 186 55 -108 53 -68 -227 -223 -132 -169 -128
-99 -14 85 80 -179 99 4 -149 -145 -156 -193 -147
-69 -44 25 57 -92 35 28 -124 -121 -83 -105 -69
-128 -34 94 57 -47 -10 9 -141 -136 -53 -81 -50
-103 -29 74 82 -111 29 -5 -151 -151 -72 -96 -62
-69 -19 50 67 -89 22 9 -136 -132 -82 -110 -67
-113 -19 94 45 -60 15 0 -146 -132 -63 -91 -52
-113 -11 103 67 -104 37 -24 -166 -156 -63 -101 -57
-133 -25 109 62 -108 46 -5 -146 -137 -82 -120 -77
-152 -25 128 79 -121 42 -10 -161 -146 -63 -101 -62
-113 -11 103 89 -140 51 -10 -161 -146 -72 -110 -76
-84 -20 65 62 -108 46 -10 -161 -151 -77 -115 -81
-90 -20 70 52 -75 22 -24 -166 -161 -82 -115 -86
-100 -6 94 55 -80 25 -29 -171 -161 -87 -115 -90
-80 23 103 53 -97 44 -34 -181 -171 -87 -115 -90
-104 8 112 28 -91 62 -34 -176 -166 -91 -125 -95
-124 -30 94 48 -108 59 -39 -181 -166 -86 -115 -90
-109 8 117 77 -109 31 -44 -171 -156 -81 -115 -84
-60 -6 54 50 -113 61 -16 -157 -141 -71 -105 -69
-80 -25 55 33 -57 23 -35 -181 -166 -62 -91 -49
-90 -45 45 52 -67 14 -35 -186 -171 -81 -110 -69
-65 -41 25 67 -67 -1 -35 -181 -166 -86 -115 -74
-65 -12 54 52 -45 -8 -50 -188 -181 -81 -105 -64
-80 -12 69 38 -59 20 -55 -203 -190 -91 -115 -73
-56 3 60 45 -74 28 -55 -193 -181 -101 -130 -87
-70 36 105 26 -58 31 -40 -178 -156 -101 -125 -92
-80 27 106 16 -88 71 -25 -164 -146 -81 -115 -87
-80 3 82 26 -94 67 -45 -178 -166 -71 -115 -78
-90 6 96 38 -82 43 -50 -188 -171 -91 -135 -102
-104 -22 82 41 -94 52 -45 -188 -171 -101 -144 -105
-109 -22 87 62 -94 31 -55 -198 -181 -96 -135 -100
-100 -42 58 64 -99 33 -55 -194 -181 -106 -140 -105
-119 -61 58 70 -80 9 -50 -184 -171 -101 -135 -100
-109 -37 72 89 -89 0 -35 -170 -156 -91 -120 -90
-109 6 115 74 -90 18 -20 -150 -141 -71 -105 -71
-75 30 105 52 -112 61 -17 -150 -137 -57 -86 -55
-36 21 57 23 -90 68 -41 -174 -161 -52 -81 -50
-57 11 67 8 -46 40 -60 -194 -181 -76 -110 -80
-91 11 101 23 -61 40 -65 -194 -181 -96 -130 -99
-71 26 96 40 -95 57 -60 -189 -176 -101 -135 -99
-96 2 97 23 -83 61 -65 -194 -181 -95 -125 -94
-66 -8 57 47 -96 49 -60 -191 -181 -100 -130 -99
-81 11 91 37 -61 24 -46 -181 -171 -100 -135 -102
-91 21 111 35 -85 51 -51 -186 -177 -90 -120 -92
-105 -22 82 35 -100 66 -51 -186 -177 -100 -125 -102
-96 -8 87 64 -93 30 -51 -186 -177 -100 -130 -102
-57 -8 48 52 -91 39 -36 -172 -157 -95 -130 -102
-61 6 66 33 -52 20 -51 -186 -172 -80 -115 -82
-91 2 92 28 -63 36 -51 -186 -177 -95 -130 -101
-96 -22 73 45 -91 46 -51 -176 -167 -95 -130 -101
-110 -23 87 59 -84 24 -51 -177 -172 -90 -125 -96
-125 20 145 66 -98 31 -26 -163 -157 -90 -125 -101
-110 -28 82 52 -134 82 -12 -143 -142 -75 -110 -81
-76 -23 53 69 -95 26 -26 -163 -162 -61 -91 -67
-52 -9 43 49 -64 14 -17 -148 -152 -80 -110 -84
-52 -14 37 30 -47 16 -7 -138 -142 -75 -110 -84
-52 -23 28 33 -44 11 -17 -148 -147 -65 -101 -75
-52 -9 42 37 -40 3 -26 -163 -167 -75 -115 -79
-71 -4 66 30 -47 16 -36 -173 -172 -90 -130 -99
-115 -28 86 37 -68 31 -26 -163 -167 -100 -140 -109
-140 -33 106 71 -100 29 -21 -165 -167 -95 -135 -104
-120 -33 86 86 -123 36 -12 -150 -152 -90 -125 -103
-91 -9 81 76 -103 26 2 -140 -147 -80 -110 -93
-86 -14 71 50 -86 36 2 -145 -152 -70 -105 -83
-91 -15 76 50 -78 28 -7 -155 -162 -75 -110 -88
-110 -34 76 52 -83 31 -2 -155 -157 -85 -120 -93
-110 -34 76 71 -93 20 -2 -155 -162 -80 -115 -88
-105 -24 81 71 -93 20 -12 -170 -167 -85 -120 -91
-91 -34 57 64 -93 28 -2 -160 -158 -95 -125 -101
-76 -29 47 63 -73 11 -12 -166 -168 -80 -115 -91
-76 38 114 53 -60 8 -18 -176 -173 -90 -120 -101
-76 -1 76 19 -94 75 -22 -180 -183 -100 -135 -106
-76 -45 32 38 -75 37 -32 -190 -192 -105 -135 -111
-96 -25 72 60 -53 -6 -13 -176 -173 -109 -140 -119
-61 23 85 60 -83 23 -3 -166 -168 -95 -125 -105
-76 -1 76 19 -72 54 -3 -161 -163 -90 -120 -100
-105 -35 71 38 -75 37 -3 -166 -163 -85 -125 -100
-101 -35 67 70 -87 18 -3 -171 -163 -84 -125 -100
-91 -11 81 68 -83 16 -13 -173 -168 -89 -125 -100
-81 -11 71 51 -85 35 -27 -182 -173 -94 -130 -103
-91 -35 57 46 -75 30 -18 -178 -173 -89 -125 -103
-96 -16 81 63 -73 11 -8 -168 -164 -84 -120 -98
-96 -1 96 56 -87 32 -3 -158 -159 -74 -105 -88
-96 -16 81 48 -95 47 -13 -163 -164 -69 -101 -78
-86 -6 81 56 -87 32 -3 -168 -164 -74 -101 -83
-91 -1 91 46 -82 37 1 -158 -154 -74 -105 -83
-76 -25 50 46 -90 45 -13 -173 -164 -69 -105 -77
-76 -35 40 50 -63 13 -32 -187 -184 -79 -115 -92
-91 -35 55 55 -58 3 -13 -174 -169 -99 -135 -107
-105 -25 79 63 -73 11 -3 -164 -159 -83 -120 -92
-115 -20 94 65 -92 28 -18 -169 -154 -78 -110 -87
-110 3 112 67 -104 37 -13 -169 -159 -73 -105 -92
-144 3 146 53 -111 57 -22 -183 -179 -68 -110 -95
-164 12 176 70 -145 74 -22 -193 -188 -88 -130 -114
-125 36 161 75 -170 94 1 -183 -179 -98 -144 -129
-76 36 112 44 -143 99 21 -169 -154 -103 -154 -144
-203 -7 196 19 -94 74 25 -159 -135 -88 -144 -149
-232 -21 211 104 -199 95 30 -156 -120 -68 -135 -144
-218 2 220 126 -221 95 64 -132 -96 -59 -125 -143
-198 7 205 107 -219 110 69 -146 -105 -10 -71 -94
-159 -31 128 95 -201 105 50 -151 -105 14 -37 -65
-120 -41 79 94 -143 48 64 -117 -66 53 6 -35
-115 -46 69 80 -99 18 79 -44 21 106 50 -11
-66 -7 59 80 -92 11 99 28 138 185 113 32
-3 36 39 38 -62 25 128 131 284 316 230 122
69 65 -4 -15 -21 37 143 229 445 478 357 215
162 100 -62 -65 36 30 128 297 592 668 519 332
250 99 -150 -129 112 18 84 335 694 883 738 532
333 60 -272 -173 200 -25 60 403 802 1059 919 708
406 79 -326 -195 302 -106 35 482 924 1195 1051 835
469 74 -395 -241 366 -123 1 545 1022 1337 1178 967
503 74 -429 -271 432 -160 -37 584 1061 1400 1222 1031
508 69 -439 -288 466 -177 -61 604 1026 1352 1158 1017
488 45 -443 -288 474 -185 -91 550 924 1182 991 924
435 -57 -492 -266 466 -199 -115 433 719 972 776 787
347 -170 -516 -188 464 -274 -144 228 392 698 513 597
313 -292 -605 -88 432 -343 -154 -22 -18 327 181 352
278 -355 -633 -10 459 -448 -140 -242 -398 -126 -224 32
273 -390 -663 38 455 -494 -81 -262 -496 -570 -644 -328
244 -395 -639 58 468 -526 -37 -223 -472 -756 -834 -528
225 -424 -649 75 441 -517 -22 -227 -492 -766 -883 -616
200 -492 -692 99 437 -536 -32 -286 -565 -800 -941 -699
171 -487 -658 146 446 -592 -22 -315 -590 -888 -1034 -816
103 -473 -576 158 414 -572 -4 -330 -604 -902 -1059 -869
44 -482 -526 185 339 -524 0 -364 -629 -897 -1054 -884
-28 -473 -445 219 285 -504 24 -360 -609 -902 -1059 -908
-72 -458 -386 250 208 -459 44 -360 -600 -883 -1049 -908
-67 -434 -367 265 157 -422 78 -336 -551 -863 -1039 -913
-141 -424 -283 250 150 -400 112 -277 -478 -814 -990 -889
-160 -399 -239 282 71 -353 142 -224 -404 -746 -922 -839
-126 -355 -229 279 39 -319 181 -170 -346 -683 -868 -799
-189 -326 -137 240 51 -292 205 -131 -302 -639 -819 -755
-209 -287 -78 257 -26 -231 239 -77 -243 -600 -775 -730
-268 -268 0 248 -65 -182 308 5 -155 -556 -731 -696
-336 -224 112 268 -134 -134 356 63 -102 -482 -658 -623
-316 -209 107 280 -224 -56 405 125 -28 -434 -604 -579
-282 -229 54 262 -211 -51 435 154 10 -360 -531 -515
-238 -205 34 255 -168 -87 444 169 29 -316 -487 -480
-243 -195 49 221 -136 -85 469 208 63 -297 -468 -466
-248 -200 49 219 -146 -72 488 232 88 -253 -424 -432
-258 -181 78 224 -148 -75 521 276 137 -228 -404 -412
-297 -190 108 220 -168 -51 546 291 142 -194 -370 -393
-263 -190 74 244 -202 -41 575 311 151 -185 -351 -371
-258 -181 78 227 -168 -58 624 345 171 -185 -351 -371
-204 -186 19 220 -168 -52 624 319 132 -170 -336 -361
-92 -225 -132 195 -111 -84 634 300 98 -204 -360 -381
-258 -269 -10 159 20 -179 619 256 23 -224 -370 -381
-277 -273 3 264 -124 -140 570 178 -44 -272 -409 -410
-287 -259 27 275 -141 -134 639 222 4 -312 -434 -429
-307 -259 47 273 -158 -115 644 202 -24 -238 -346 -346
-312 -284 28 283 -178 -106 619 168 -49 -247 -346 -341
-248 -260 -12 298 -171 -128 600 139 -73 -252 -351 -341
-214 -201 13 254 -119 -136 585 119 -73 -252 -341 -331
-194 -191 3 207 -114 -94 531 75 -98 -237 -316 -307
-233 -235 -2 192 -99 -94 458 15 -146 -237 -316 -307
-199 -177 22 234 -116 -118 434 0 -146 -262 -336 -314
-165 -128 37 188 -111 -77 434 10 -122 -247 -316 -295
-131 -133 -2 146 -102 -45 380 -28 -156 -203 -272 -251
-175 -100 76 132 -65 -67 316 -67 -176 -208 -272 -251
-200 -124 76 137 -126 -11 287 -67 -167 -208 -268 -241
-171 -105 66 161 -138 -23 277 -67 -147 -184 -233 -217
-112 -105 7 137 -119 -19 272 -63 -138 -144 -194 -181
-122 -85 37 107 -60 -48 219 -82 -147 -119 -171 -157
-93 -51 42 102 -80 -23 165 -108 -167 -124 -176 -162
-98 -46 52 71 -68 -4 155 -108 -152 -129 -181 -172
-93 -61 32 71 -75 3 121 -108 -143 -109 -156 -147
-107 -51 56 76 -63 -14 92 -103 -133 -90 -137 -128
-93 -12 81 78 -82 2 62 -108 -128 -70 -117 -106
-83 -31 52 51 -87 34 48 -108 -123 -56 -103 -92
-68 -31 37 56 -68 10 33 -112 -128 -51 -98 -82
-44 -7 37 48 -53 2 23 -112 -123 -51 -93 -77
-49 -7 42 24 -41 14 -5 -137 -147 -41 -83 -67
-49 -36 13 27 -46 17 -29 -149 -157 -56 -93 -82
-49 -17 32 41 -31 -12 -34 -158 -157 -60 -103 -86
-78 -3 75 34 -40 7 -34 -158 -147 -60 -98 -81
-156 -26 130 41 -76 35 -40 -158 -143 -56 -88 -71
-112 -7 105 92 -142 51 -30 -149 -133 -51 -83 -66
-49 21 69 60 -108 48 -16 -129 -113 -36 -73 -51
-39 17 55 15 -59 45 -21 -134 -118 -17 -54 -32
-54 6 60 12 -47 36 -25 -139 -123 -17 -54 -32
-59 -4 55 24 -57 33 -30 -149 -128 -21 -59 -35
-73 1 74 32 -57 26 -45 -153 -133 -26 -59 -35
-54 6 60 36 -73 38 -64 -164 -147 -31 -59 -45
-34 16 50 24 -57 33 -64 -164 -143 -36 -63 -49
-16 40 55 9 -42 33 -60 -159 -133 -31 -63 -45
-25 30 54 -12 -35 48 -64 -159 -133 -26 -54 -40
-35 1 35 -2 -39 42 -74 -164 -138 -21 -54 -34
-25 -18 6 17 -34 18 -69 -159 -128 -20 -54 -34
-21 -8 12 21 -15 -5 -94 -174 -147 -11 -44 -24
-30 -8 21 14 -16 2 -94 -179 -152 -30 -63 -39
-30 -4 25 19 -25 7 -89 -169 -147 -35 -68 -48
-25 1 25 17 -27 11 -84 -166 -138 -25 -59 -39
-25 16 40 12 -24 12 -84 -166 -138 -20 -44 -32
-25 16 40 4 -32 27 -89 -171 -143 -20 -44 -32
-25 15 40 4 -32 27 -89 -171 -143 -20 -49 -32
-30 15 45 4 -32 27 -94 -171 -138 -16 -44 -27
-16 39 55 7 -37 30 -99 -171 -143 -11 -44 -17
-11 39 50 -12 -35 47 -108 -181 -153 -16 -49 -22
-2 19 21 -14 -30 44 -128 -181 -148 -20 -49 -26
-25 15 40 -9 -11 20 -133 -186 -144 -20 -49 -21
-40 10 50 4 -32 27 -133 -186 -144 -20 -49 -26
-21 18 40 14 -44 29 -128 -182 -144 -20 -49 -26
-16 18 35 1 -30 28 -133 -177 -144 -11 -34 -21
-2 18 21 -2 -25 26 -123 -177 -139 -6 -24 -11
3 23 21 -9 -11 19 -133 -177 -139 -1 -20 -6
-16 38 55 -14 -8 21 -138 -177 -134 -1 -24 -4
-21 28 50 -12 -35 46 -133 -182 -139 3 -20 0
-21 23 45 -4 -35 38 -123 -167 -134 -1 -24 -4
-25 33 57 -2 -32 33 -123 -162 -124 8 -10 15
-35 43 77 -4 -41 45 -128 -157 -119 18 -1 29
8 14 5 -4 -56 60 -123 -159 -119 27 14 39
47 28 -20 -11 1 10 -123 -155 -119 32 23 49
57 82 24 -37 33 4 -138 -164 -124 37 23 49
66 77 10 -69 16 53 -147 -169 -129 32 19 44
76 33 -44 -71 27 44 -162 -179 -139 27 14 40
57 18 -40 -54 59 -5 -167 -179 -134 18 4 35
42 38 -5 -37 48 -10 -157 -174 -124 23 14 54
66 77 10 -40 23 16 -147 -164 -119 32 19 61
76 33 -44 -71 27 43 -157 -164 -124 37 23 66
105 9 -97 -54 59 -6 -177 -185 -139 32 23 61
130 33 -98 -57 100 -44 -172 -175 -129 18 9 46
76 77 0 -81 113 -33 -182 -175 -129 32 28 61
61 76 15 -76 37 38 -172 -170 -124 37 33 61
125 96 -29 -69 22 45 -147 -146 -101 48 38 56
86 56 -30 -111 76 33 -167 -156 -110 67 58 72
42 61 19 -71 57 13 -196 -185 -140 67 53 67
169 81 -88 -52 11 40 -167 -156 -106 33 23 52
198 66 -132 -125 128 -4 -148 -141 -96 67 58 96
37 61 24 -132 164 -33 -231 -209 -164 87 82 121
101 42 -59 -49 6 42 -246 -211 -154 28 28 62
140 52 -88 -72 79 -8 -168 -148 -91 38 43 88
66 81 15 -96 113 -18 -197 -172 -120 111 126 171
125 96 -29 -74 25 48 -207 -182 -120 92 111 152
105 100 -5 -111 76 33 -197 -167 -101 92 111 157
169 105 -64 -103 54 47 -217 -182 -110 116 136 181
164 110 -54 -137 116 20 -212 -162 -91 112 131 176
130 115 -15 -137 108 28 -241 -192 -121 142 155 212
115 65 -49 -123 72 50 -246 -197 -121 117 136 187
135 114 -20 -91 81 8 -241 -178 -97 112 131 177
154 129 -25 -125 77 47 -227 -173 -87 137 155 197
179 124 -55 -142 88 53 -261 -198 -116 151 170 216
198 99 -99 -152 116 35 -266 -207 -121 132 160 202
223 143 -80 -149 147 1 -266 -203 -111 132 165 214
193 163 -30 -184 150 31 -261 -193 -102 147 185 238
164 133 -30 -177 111 66 -280 -217 -121 166 204 262
188 181 -6 -148 97 52 -291 -212 -111 147 194 253
193 191 -1 -184 97 88 -286 -212 -111 166 214 272
208 181 -26 -191 97 95 -311 -227 -126 171 214 277
218 147 -70 -194 117 78 -311 -229 -126 161 204 267
213 118 -94 -182 144 39 -301 -229 -126 156 209 268
188 123 -64 -165 153 12 -301 -224 -121 161 209 273
193 123 -69 -155 126 29 -311 -224 -121 166 214 273
262 128 -133 -157 131 26 -296 -214 -116 171 224 278
271 147 -123 -194 197 -3 -301 -219 -121 181 233 293
252 128 -123 -208 197 11 -325 -239 -136 176 228 288
242 89 -152 -189 187 2 -340 -244 -136 161 214 275
252 123 -128 -165 197 -32 -325 -229 -121 161 214 280
285 152 -133 -187 190 -3 -301 -210 -97 171 228 295
261 118 -143 -218 209 9 -316 -220 -111 195 253 319
231 128 -103 -189 202 -13 -340 -245 -136 186 238 304
241 167 -74 -179 167 12 -330 -235 -131 162 213 280
212 172 -40 -204 158 46 -325 -230 -126 162 223 281
197 142 -55 -192 126 65 -335 -235 -136 162 223 281
187 133 -54 -169 126 43 -320 -225 -126 152 208 271
178 133 -45 -160 121 39 -306 -210 -107 162 213 271
153 128 -25 -155 112 43 -306 -206 -102 172 223 281
168 122 -45 -140 89 51 -301 -212 -111 177 223 286
197 117 -79 -145 107 38 -306 -217 -116 167 208 273
192 136 -55 -157 138 18 -316 -222 -121 157 198 263
168 141 -28 -164 124 39 -316 -227 -121 148 184 249
178 141 -38 -155 97 56 -306 -222 -126 138 179 239
178 117 -62 -160 107 51 -291 -212 -126 133 174 229
163 93 -71 -148 119 27 -291 -212 -126 123 159 220
148 107 -42 -128 116 11 -281 -203 -121 113 149 205
139 107 -33 -128 94 32 -262 -188 -103 123 149 206
114 88 -27 -123 85 37 -257 -178 -93 128 159 206
104 102 -3 -101 70 30 -242 -179 -93 133 154 206
70 88 17 -103 53 49 -228 -165 -78 123 140 191
46 102 55 -79 26 52 -218 -160 -73 133 144 191
60 112 51 -73 -4 78 -218 -160 -83 128 135 181
80 106 26 -85 5 81 -194 -145 -68 118 125 169
109 106 -3 -93 27 66 -194 -140 -68 128 130 164
90 96 6 -107 56 52 -194 -140 -64 118 120 144
70 87 17 -93 42 51 -194 -135 -59 109 105 125
75 96 21 -78 27 52 -194 -130 -54 104 91 115
51 72 21 -85 27 59 -170 -118 -44 99 81 105
41 92 51 -61 15 47 -155 -108 -39 104 81 106
51 100 50 -66 -4 72 -141 -103 -34 99 71 97
21 32 12 -76 1 76 -136 -98 -29 94 61 82
12 37 26 -27 5 23 -150 -103 -39 89 52 72
12 37 26 -25 -6 32 -136 -98 -34 69 32 53
-3 32 36 -25 -6 32 -126 -93 -34 69 27 38
-3 37 41 -15 -19 35 -107 -84 -34 65 27 30
12 56 45 -17 -21 39 -107 -84 -39 60 18 17
12 42 31 -34 -16 50 -102 -79 -34 50 8 2
36 56 21 -27 -9 36 -77 -65 -20 50 -2 -3
7 51 45 -46 8 38 -63 -60 -20 55 -2 -3
-12 37 50 -29 -18 48 -58 -55 -15 51 -11 -13
-26 22 49 -13 -30 43 -53 -55 -20 51 -11 -13
-70 -16 55 2 -37 35 -53 -60 -25 41 -21 -21
-70 -12 58 42 -62 19 -53 -65 -40 31 -30 -31
-56 -12 44 40 -64 23 -43 -70 -50 12 -50 -51
-26 12 38 33 -50 15 -33 -70 -50 3 -55 -61
-7 8 15 7 -32 24 -38 -75 -60 3 -60 -61
-22 -2 20 -1 -11 11 -43 -82 -60 -7 -69 -75
-51 -2 49 11 -21 8 -19 -62 -50 -16 -74 -73
-66 8 73 26 -50 23 -19 -67 -55 -7 -64 -63
-66 -21 44 28 -69 40 -14 -72 -60 -16 -79 -68
-57 -35 21 42 -54 11 -33 -82 -79 -26 -84 -78
-42 -32 10 45 -38 -8 -19 -77 -74 -45 -99 -88
-37 -17 20 35 -25 -11 -19 -82 -84 -45 -99 -93
-37 -17 20 25 -28 1 -28 -82 -84 -54 -108 -106
-52 -36 16 25 -28 1 -19 -82 -84 -54 -108 -111
-62 -17 45 42 -33 -10 -24 -88 -95 -54 -113 -116
-57 -3 54 40 -53 14 -19 -83 -85 -59 -123 -126
-42 11 53 30 -55 25 -14 -83 -85 -54 -118 -116
-52 2 54 16 -47 32 -28 -102 -95 -50 -118 -116
-71 -36 35 25 -52 28 -33 -107 -100 -59 -128 -131
-57 -41 16 54 -52 -1 -9 -97 -90 -69 -128 -129
-96 -41 55 49 -36 -13 -19 -112 -105 -59 -118 -119
-96 -46 50 69 -75 6 -38 -132 -124 -69 -133 -134
-62 -17 45 71 -72 1 -5 -92 -90 -84 -143 -143
-57 -8 49 40 -53 13 10 -83 -75 -50 -104 -104
-76 -14 63 33 -52 19 -9 -99 -95 -30 -89 -85
-71 6 78 45 -69 24 -19 -104 -95 -50 -104 -94
-52 10 63 32 -74 41 -9 -94 -80 -54 -104 -94
6 20 15 21 -57 36 -19 -109 -95 -40 -94 -84
-52 1 54 -13 -4 17 -28 -114 -100 -50 -104 -98
-32 1 34 25 -52 27 -24 -119 -105 -54 -108 -108
20 10 -9 15 -32 17 5 -104 -90 -54 -108 -108
-53 -5 47 -15 15 0 -14 -119 -114 -45 -94 -92
-53 -38 14 28 -50 22 -43 -138 -129 -64 -118 -116
-92 -19 72 44 -33 -11 -25 -115 -105 -79 -133 -131
-150 -5 144 54 -82 27 -10 -105 -95 -53 -108 -116
29 5 -25 76 -147 70 14 -76 -70 -49 -108 -111
176 5 -172 -18 27 -9 38 -56 -41 -29 -84 -87
-53 0 52 -91 174 -82 -25 -120 -110 -5 -64 -61
-111 0 110 25 -52 27 -98 -178 -163 -58 -123 -115
-146 5 150 54 -110 56 -20 -105 -85 -112 -167 -154
-107 9 115 69 -148 78 -1 -86 -70 -34 -84 -81
-48 -5 42 48 -111 63 14 -66 -51 -14 -60 -56
-48 -19 28 25 -45 19 -6 -86 -66 5 -40 -37
-28 9 36 32 -38 5 -20 -97 -75 -5 -50 -52
0 24 23 9 -32 23 -20 -102 -80 -19 -64 -64
-24 19 42 -13 -11 23 -29 -107 -85 -19 -69 -69
-38 24 61 2 -33 30 -44 -122 -100 -24 -74 -74
-38 19 56 6 -49 42 -34 -117 -95 -39 -94 -84
-53 5 57 9 -47 37 -25 -102 -80 -34 -84 -74
-19 19 37 23 -55 31 -34 -107 -85 -24 -69 -54
-5 34 38 0 -28 28 -25 -97 -70 -19 -64 -53
-14 44 57 -14 -21 36 -21 -102 -75 -5 -45 -34
-43 34 76 -15 -35 50 -35 -108 -85 -5 -40 -29
-28 33 61 5 -59 54 -35 -103 -76 -10 -45 -34
-58 47 105 -3 -44 46 -35 -98 -71 -5 -40 -29
-48 43 91 5 -81 75 -30 -98 -71 0 -40 -24
-38 33 71 2 -69 66 -30 -98 -67 5 -35 -17
-48 43 91 2 -54 51 -30 -98 -71 14 -30 -12
-67 28 95 2 -69 66 -30 -98 -67 9 -30 -22
-67 13 80 19 -81 61 -35 -94 -62 9 -30 -22
-58 47 105 26 -73 46 -30 -84 -47 14 -30 -22
-19 52 71 5 -81 75 -40 -96 -57 19 -21 -12
10 72 61 -17 -45 61 -50 -105 -71 9 -25 -21
19 87 67 -41 -26 66 -65 -120 -86 5 -30 -31
0 101 100 -53 -24 77 -69 -135 -101 -10 -45 -41
-9 82 90 -51 -50 100 -74 -144 -111 -24 -60 -46
-9 8 16 -37 -50 86 -84 -154 -115 -29 -60 -46
-5 17 22 0 -13 12 -84 -149 -111 -29 -64 -46
-5 27 32 -7 -14 20 -60 -120 -86 -24 -60 -41
-9 7 16 -12 -19 30 -55 -125 -91 0 -35 -19
-38 -12 26 0 -13 11 -74 -144 -111 -10 -40 -29
-48 3 51 24 -32 6 -60 -136 -106 -23 -60 -44
-77 22 99 21 -50 26 -40 -121 -96 -18 -45 -34
-82 56 138 26 -88 60 -40 -116 -91 -4 -35 -24
-53 41 95 12 -110 96 -35 -116 -91 -4 -35 -24
-48 -3 46 5 -74 68 -35 -116 -91 -4 -30 -23
-19 -3 17 24 -47 21 -35 -116 -86 -4 -35 -23
-5 2 8 10 -18 7 -30 -111 -86 -4 -30 -18
-28 75 104 0 -7 5 -55 -136 -107 -4 -30 -18
-58 80 139 -25 -66 89 -65 -141 -121 -23 -55 -33
-53 41 95 -12 -99 109 -74 -152 -136 -33 -64 -52
-24 -22 3 5 -74 68 -65 -147 -131 -52 -84 -70
-33 -3 31 21 -14 -10 -55 -138 -126 -48 -79 -70
-24 26 51 16 -32 14 -40 -123 -107 -37 -64 -55
-28 65 94 -2 -38 38 -35 -118 -102 -22 -50 -41
-24 26 51 -18 -60 79 -35 -123 -107 -17 -50 -36
-28 16 45 0 -37 38 -46 -138 -121 -22 -50 -41
-38 41 80 7 -36 30 -36 -128 -112 -37 -74 -55
-67 26 94 -1 -58 60 -31 -133 -112 -32 -64 -49
-58 -61 -2 21 -80 60 -56 -147 -126 -32 -69 -49
-48 2 51 60 -27 -31 -46 -134 -116 -47 -79 -64
-48 50 99 23 -49 26 -27 -119 -103 -37 -69 -54
-43 31 73 0 -73 74 -46 -148 -137 -22 -55 -40
-58 21 78 7 -58 53 -56 -158 -147 -56 -84 -74
-63 6 68 19 -68 50 -31 -134 -122 -66 -104 -86
-48 -8 39 29 -66 37 -27 -124 -113 -47 -79 -67
-53 5 58 28 -44 15 -17 -124 -108 -37 -79 -62
-48 25 73 24 -56 32 -22 -124 -113 -32 -69 -52
-53 20 73 12 -61 49 -27 -129 -113 -32 -69 -52
-72 10 82 16 -63 47 -22 -131 -117 -32 -69 -52
-87 1 88 31 -77 46 -22 -136 -117 -37 -74 -56
-97 15 112 43 -88 45 -12 -131 -117 -42 -74 -61
-82 5 87 41 -105 64 -12 -131 -122 -37 -69 -61
-58 1 59 38 -85 46 -12 -126 -113 -42 -74 -61
-28 15 43 28 -59 29 -17 -131 -117 -42 -74 -56
-34 15 48 7 -36 28 -27 -146 -127 -42 -79 -66
-49 -4 44 9 -41 31 -31 -146 -132 -56 -89 -64
-44 -4 39 26 -46 19 -36 -155 -137 -61 -99 -69
-49 20 68 23 -41 17 -36 -151 -132 -70 -105 -74
-59 25 83 14 -58 43 -22 -142 -127 -65 -100 -74
-73 0 73 16 -71 53 -22 -142 -132 -55 -95 -74
-54 0 54 35 -73 36 -27 -151 -137 -60 -100 -78
-44 0 44 26 -54 27 -31 -151 -142 -70 -100 -88
-34 9 43 21 -44 22 -36 -156 -147 -70 -100 -82
-44 24 68 12 -38 26 -31 -156 -147 -70 -100 -82
-64 -10 54 9 -56 46 -31 -151 -142 -65 -100 -77
-49 0 49 36 -59 22 -22 -147 -132 -60 -90 -68
-59 14 73 23 -49 24 -22 -147 -142 -55 -85 -58
-64 18 83 21 -66 43 -31 -149 -142 -65 -95 -73
-59 8 68 21 -73 51 -31 -149 -142 -65 -100 -71
-49 -11 39 25 -63 38 -17 -139 -137 -70 -105 -75
-49 -21 29 29 -44 13 -22 -139 -137 -60 -95 -71
-64 -25 40 34 -39 3 -12 -139 -127 -60 -90 -71
-59 -16 43 44 -52 7 -27 -153 -142 -55 -85 -71
-44 13 57 37 -51 13 -27 -153 -142 -60 -95 -80
-44 28 72 15 -51 35 -17 -144 -132 -60 -90 -79
-68 33 101 8 -58 50 -17 -144 -137 -55 -90 -70
-73 23 96 17 -85 67 -12 -140 -132 -55 -100 -74
-44 -11 33 24 -85 59 -8 -135 -122 -60 -100 -74
-64 -1 63 27 -39 11 -12 -140 -127 -55 -95 -70
-98 -21 77 32 -64 31 -27 -154 -148 -65 -100 -74
-73 23 96 59 -88 28 -17 -145 -138 -80 -114 -87
-117 18 135 24 -85 59 -8 -130 -128 -70 -100 -77
-127 -1 126 49 -126 76 -12 -145 -143 -60 -90 -68
23 18 -5 63 -127 62 2 -130 -123 -70 -100 -77
48 13 -35 -21 13 6 -3 -130 -123 -50 -85 -58
-103 18 121 -31 41 -11 -56 -179 -172 -46 -80 -53
-64 8 72 42 -112 69 -61 -186 -162 -94 -129 -97
106 3 -103 27 -68 40 -9 -127 -109 -99 -129 -91
-54 -2 53 -55 104 -50 -23 -156 -143 -46 -70 -32
-34 12 47 27 -54 26 -71 -200 -192 -70 -100 -62
-29 12 42 10 -41 30 -9 -137 -128 -119 -148 -111
-73 -12 62 8 -36 27 -18 -152 -148 -60 -85 -62
-117 -26 92 41 -68 25 -32 -156 -148 -80 -109 -86
-117 -2 116 70 -105 33 -32 -147 -138 -84 -114 -84
-59 12 72 58 -117 57 -13 -132 -123 -69 -100 -65
-59 2 62 22 -66 41 -13 -133 -123 -54 -85 -45
-44 7 52 27 -61 31 -32 -153 -143 -54 -85 -45
-44 17 62 17 -48 29 -32 -157 -148 -74 -105 -65
-64 12 77 13 -53 39 -52 -167 -157 -74 -109 -69
-49 22 72 25 -71 44 -47 -167 -157 -84 -119 -83
-49 12 62 13 -61 46 -32 -153 -148 -89 -119 -83
-49 -7 43 17 -56 36 -23 -148 -143 -79 -105 -78
-39 22 61 27 -46 17 -32 -157 -153 -69 -100 -78
-40 21 61 9 -51 41 -37 -167 -157 -84 -119 -88
-45 21 65 9 -50 40 -23 -154 -148 -93 -124 -98
-79 7 85 13 -55 43 -24 -154 -149 -74 -109 -77
-89 -8 80 37 -82 46 -19 -150 -139 -73 -110 -77
-74 -3 70 49 -84 36 4 -140 -135 -68 -101 -66
-64 7 70 39 -72 33 -10 -150 -144 -59 -96 -61
-89 -22 66 29 -67 38 -15 -155 -144 -68 -105 -71
-89 -27 61 56 -77 22 -19 -150 -144 -73 -105 -71
-89 -32 56 59 -75 17 -24 -155 -154 -68 -105 -71
-84 -22 61 61 -72 12 -10 -150 -149 -73 -105 -71
-99 -12 86 54 -72 19 0 -145 -144 -73 -101 -70
-89 -27 61 56 -92 37 -5 -145 -144 -64 -96 -65
-89 -42 46 59 -75 17 -10 -146 -144 -64 -101 -65
-99 -27 71 66 -67 2 -10 -141 -135 -64 -96 -65
-79 2 80 64 -85 22 0 -141 -135 -59 -96 -60
-74 1 75 39 -79 41 0 -146 -144 -64 -101 -65
-94 -13 81 37 -74 38 -19 -165 -164 -73 -110 -73
-84 6 90 54 -87 34 -15 -165 -159 -93 -130 -93
-64 -13 51 39 -87 48 -29 -170 -169 -93 -125 -93
-84 -43 41 39 -57 19 -15 -161 -159 -98 -135 -102
-99 -38 61 64 -62 0 -10 -156 -159 -93 -120 -93
-79 10 89 69 -80 12 0 -153 -149 -88 -115 -88
-64 0 65 35 -84 50 14 -138 -139 -78 -115 -82
-55 0 56 32 -64 33 -15 -167 -159 -68 -105 -72
-74 0 75 27 -55 29 -15 -158 -154 -93 -125 -87
-40 -10 31 37 -74 38 -5 -153 -149 -83 -115 -77
-35 -19 17 25 -35 11 0 -153 -144 -73 -101 -62
-133 -24 110 27 -26 -1 -10 -158 -159 -68 -101 -57
-123 -19 105 78 -121 43 -19 -163 -165 -78 -110 -72
-103 -14 90 71 -114 43 19 -128 -131 -88 -115 -80
-147 -5 143 58 -96 38 19 -133 -136 -59 -86 -51
-74 -19 55 76 -145 69 9 -144 -140 -68 -96 -60
-16 -19 -3 46 -65 18 19 -129 -131 -73 -110 -75
-103 0 103 17 -7 -10 -5 -164 -155 -68 -101 -70
27 -10 -37 51 -103 52 -29 -188 -180 -93 -135 -104
101 0 -101 -8 31 -24 0 -159 -155 -112 -154 -123
-108 0 108 -49 100 -51 -44 -203 -204 -88 -125 -89
-172 14 186 55 -108 53 -68 -227 -223 -132 -169 -128
-99 -14 85 80 -179 99 4 -149 -145 -156 -193 -147
-69 -44 25 57 -92 35 28 -124 -121 -83 -105 -69
-128 -34 94 57 -47 -10 9 -141 -136 -53 -81 -50
-103 -29 74 82 -111 29 -5 -151 -151 -72 -96 -62
-69 -19 50 67 -89 22 9 -136 -132 -82 -110 -67
-113 -19 94 45 -60 15 0 -146 -132 -63 -91 -52
-113 -11 103 67 -104 37 -24 -166 -156 -63 -101 -57
-133 -25 109 62 -108 46 -5 -146 -137 -82 -120 -77
-152 -25 128 79 -121 42 -10 -161 -146 -63 -101 -62
-113 -11 103 89 -140 51 -10 -161 -146 -72 -110 -76
-84 -20 65 62 -108 46 -10 -161 -151 -77 -115 -81
-90 -20 70 52 -75 22 -24 -166 -161 -82 -115 -86
-100 -6 94 55 -80 25 -29 -171 -161 -87 -115 -90
-80 23 103 53 -97 44 -34 -181 -171 -87 -115 -90
-104 8 112 28 -91 62 -34 -176 -166 -91 -125 -95
-124 -30 94 48 -108 59 -39 -181 -166 -86 -115 -90
-109 8 117 77 -109 31 -44 -171 -156 -81 -115 -84
-60 -6 54 50 -113 61 -16 -157 -141 -71 -105 -69
-80 -25 55 33 -57 23 -35 -181 -166 -62 -91 -49
-90 -45 45 52 -67 14 -35 -186 -171 -81 -110 -69
-65 -41 25 67 -67 -1 -35 -181 -166 -86 -115 -74
-65 -12 54 52 -45 -8 -50 -188 -181 -81 -105 -64
-80 -12 69 38 -59 20 -55 -203 -190 -91 -115 -73
-56 3 60 45 -74 28 -55 -193 -181 -101 -130 -87
-70 36 105 26 -58 31 -40 -178 -156 -101 -125 -92
-80 27 106 16 -88 71 -25 -164 -146 -81 -115 -87
-80 3 82 26 -94 67 -45 -178 -166 -71 -115 -78
-90 6 96 38 -82 43 -50 -188 -171 -91 -135 -102
-104 -22 82 41 -94 52 -45 -188 -171 -101 -144 -105
-109 -22 87 62 -94 31 -55 -198 -181 -96 -135 -100
-100 -42 58 64 -99 33 -55 -194 -181 -106 -140 -105
-119 -61 58 70 -80 9 -50 -184 -171 -101 -135 -100
-109 -37 72 89 -89 0 -35 -170 -156 -91 -120 -90
-109 6 115 74 -90 18 -20 -150 -141 -71 -105 -71
-75 30 105 52 -112 61 -17 -150 -137 -57 -86 -55
-36 21 57 23 -90 68 -41 -174 -161 -52 -81 -50
-57 11 67 8 -46 40 -60 -194 -181 -76 -110 -80
-91 11 101 23 -61 40 -65 -194 -181 -96 -130 -99
-71 26 96 40 -95 57 -60 -189 -176 -101 -135 -99
-96 2 97 23 -83 61 -65 -194 -181 -95 -125 -94
-66 -8 57 47 -96 49 -60 -191 -181 -100 -130 -99
-81 11 91 37 -61 24 -46 -181 -171 -100 -135 -102
-91 21 111 35 -85 51 -51 -186 -177 -90 -120 -92
-105 -22 82 35 -100 66 -51 -186 -177 -100 -125 -102
-96 -8 87 64 -93 30 -51 -186 -177 -100 -130 -102
-57 -8 48 52 -91 39 -36 -172 -157 -95 -130 -102
-61 6 66 33 -52 20 -51 -186 -172 -80 -115 -82
-91 2 92 28 -63 36 -51 -186 -177 -95 -130 -101
-96 -22 73 45 -91 46 -51 -176 -167 -95 -130 -101
-110 -23 87 59 -84 24 -51 -177 -172 -90 -125 -96
-125 20 145 66 -98 31 -26 -163 -157 -90 -125 -101
-110 -28 82 52 -134 82 -12 -143 -142 -75 -110 -81
-76 -23 53 69 -95 26 -26 -163 -162 -61 -91 -67
-52 -9 43 49 -64 14 -17 -148 -152 -80 -110 -84
-52 -14 37 30 -47 16 -7 -138 -142 -75 -110 -84
-52 -23 28 33 -44 11 -17 -148 -147 -65 -101 -75
-52 -9 42 37 -40 3 -26 -163 -167 -75 -115 -79
-71 -4 66 30 -47 16 -36 -173 -172 -90 -130 -99
-115 -28 86 37 -68 31 -26 -163 -167 -100 -140 -109
-140 -33 106 71 -100 29 -21 -165 -167 -95 -135 -104
-120 -33 86 86 -123 36 -12 -150 -152 -90 -125 -103
-91 -9 81 76 -103 26 2 -140 -147 -80 -110 -93
-86 -14 71 50 -86 36 2 -145 -152 -70 -105 -83
-91 -15 76 50 -78 28 -7 -155 -162 -75 -110 -88
-110 -34 76 52 -83 31 -2 -155 -157 -85 -120 -93
-110 -34 76 71 -93 20 -2 -155 -162 -80 -115 -88
-105 -24 81 71 -93 20 -12 -170 -167 -85 -120 -91
-91 -34 57 64 -93 28 -2 -160 -158 -95 -125 -101
-76 -29 47 63 -73 11 -12 -166 -168 -80 -115 -91
-76 38 114 53 -60 8 -18 -176 -173 -90 -120 -101
-76 -1 76 19 -94 75 -22 -180 -183 -100 -135 -106
-76 -45 32 38 -75 37 -32 -190 -192 -105 -135 -111
-96 -25 72 60 -53 -6 -13 -176 -173 -109 -140 -119
-61 23 85 60 -83 23 -3 -166 -168 -95 -125 -105
-76 -1 76 19 -72 54 -3 -161 -163 -90 -120 -100
-105 -35 71 38 -75 37 -3 -166 -163 -85 -125 -100
-101 -35 67 70 -87 18 -3 -171 -163 -84 -125 -100
-91 -11 81 68 -83 16 -13 -173 -168 -89 -125 -100
-81 -11 71 51 -85 35 -27 -182 -173 -94 -130 -103
-91 -35 57 46 -75 30 -18 -178 -173 -89 -125 -103
-96 -16 81 63 -73 11 -8 -168 -164 -84 -120 -98
-96 -1 96 56 -87 32 -3 -158 -159 -74 -105 -88
-96 -16 81 48 -95 47 -13 -163 -164 -69 -101 -78
-86 -6 81 56 -87 32 -3 -168 -164 -74 -101 -83
-91 -1 91 46 -82 37 1 -158 -154 -74 -105 -83
-76 -25 50 46 -90 45 -13 -173 -164 -69 -105 -77
-76 -35 40 50 -63 13 -32 -187 -184 -79 -115 -92
-91 -35 55 55 -58 3 -13 -174 -169 -99 -135 -107
-105 -25 79 63 -73 11 -3 -164 -159 -83 -120 -92
-115 -20 94 65 -92 28 -18 -169 -154 -78 -110 -87
-110 3 112 67 -104 37 -13 -169 -159 -73 -105 -92
-144 3 146 53 -111 57 -22 -183 -179 -68 -110 -95
-164 12 176 70 -145 74 -22 -193 -188 -88 -130 -114
-125 36 161 75 -170 94 1 -183 -179 -98 -144 -129
-76 36 112 44 -143 99 21 -169 -154 -103 -154 -144
-203 -7 196 19 -94 74 25 -159 -135 -88 -144 -149
-232 -21 211 104 -199 95 30 -156 -120 -68 -135 -144
-218 2 220 126 -221 95 64 -132 -96 -59 -125 -143
-198 7 205 107 -219 110 69 -146 -105 -10 -71 -94
-159 -31 128 95 -201 105 50 -151 -105 14 -37 -65
-120 -41 79 94 -143 48 64 -117 -66 53 6 -35
-115 -46 69 80 -99 18 79 -44 21 106 50 -11
-66 -7 59 80 -92 11 99 28 138 185 113 32
-3 36 39 38 -62 25 128 131 284 316 230 122
69 65 -4 -15 -21 37 143 229 445 478 357 215
162 100 -62 -65 36 30 128 297 592 668 519 332
250 99 -150 -129 112 18 84 335 694 883 738 532
333 60 -272 -173 200 -25 60 403 802 1059 919 708
406 79 -326 -195 302 -106 35 482 924 1195 1051 835
469 74 -395 -241 366 -123 1 545 1022 1337 1178 967
503 74 -429 -271 432 -160 -37 584 1061 1400 1222 1031
508 69 -439 -288 466 -177 -61 604 1026 1352 1158 1017
488 45 -443 -288 474 -185 -91 550 924 1182 991 924
435 -57 -492 -266 466 -199 -115 433 719 972 776 787
347 -170 -516 -188 464 -274 -144 228 392 698 513 597
313 -292 -605 -88 432 -343 -154 -22 -18 327 181 352
278 -355 -633 -10 459 -448 -140 -242 -398 -126 -224 32
273 -390 -663 38 455 -494 -81 -262 -496 -570 -644 -328
244 -395 -639 58 468 -526 -37 -223 -472 -756 -834 -528
225 -424 -649 75 441 -517 -22 -227 -492 -766 -883 -616
200 -492 -692 99 437 -536 -32 -286 -565 -800 -941 -699
171 -487 -658 146 446 -592 -22 -315 -590 -888 -1034 -816
103 -473 -576 158 414 -572 -4 -330 -604 -902 -1059 -869
44 -482 -526 185 339 -524 0 -364 -629 -897 -1054 -884
-28 -473 -445 219 285 -504 24 -360 -609 -902 -1059 -908
-72 -458 -386 250 208 -459 44 -360 -600 -883 -1049 -908
-67 -434 -367 265 157 -422 78 -336 -551 -863 -1039 -913
-141 -424 -283 250 150 -400 112 -277 -478 -814 -990 -889
-160 -399 -239 282 71 -353 142 -224 -404 -746 -922 -839
-126 -355 -229 279 39 -319 181 -170 -346 -683 -868 -799
-189 -326 -137 240 51 -292 205 -131 -302 -639 -819 -755
-209 -287 -78 257 -26 -231 239 -77 -243 -600 -775 -730
-268 -268 0 248 -65 -182 308 5 -155 -556 -731 -696
-336 -224 112 268 -134 -134 356 63 -102 -482 -658 -623
-316 -209 107 280 -224 -56 405 125 -28 -434 -604 -579
-282 -229 54 262 -211 -51 435 154 10 -360 -531 -515
-238 -205 34 255 -168 -87 444 169 29 -316 -487 -480
-243 -195 49 221 -136 -85 469 208 63 -297 -468 -466
-248 -200 49 219 -146 -72 488 232 88 -253 -424 -432
-258 -181 78 224 -148 -75 521 276 137 -228 -404 -412
-297 -190 108 220 -168 -51 546 291 142 -194 -370 -393
-263 -190 74 244 -202 -41 575 311 151 -185 -351 -371
-258 -181 78 227 -168 -58 624 345 171 -185 -351 -371
-204 -186 19 220 -168 -52 624 319 132 -170 -336 -361
-92 -225 -132 195 -111 -84 634 300 98 -204 -360 -381
-258 -269 -10 159 20 -179 619 256 23 -224 -370 -381
-277 -273 3 264 -124 -140 570 178 -44 -272 -409 -410
-287 -259 27 275 -141 -134 639 222 4 -312 -434 -429
-307 -259 47 273 -158 -115 644 202 -24 -238 -346 -346
-312 -284 28 283 -178 -106 619 168 -49 -247 -346 -341
-248 -260 -12 298 -171 -128 600 139 -73 -252 -351 -341
-214 -201 13 254 -119 -136 585 119 -73 -252 -341 -331
-194 -191 3 207 -114 -94 531 75 -98 -237 -316 -307
-233 -235 -2 192 -99 -94 458 15 -146 -237 -316 -307
-199 -177 22 234 -116 -118 434 0 -146 -262 -336 -314
-165 -128 37 188 -111 -77 434 10 -122 -247 -316 -295
-131 -133 -2 146 -102 -45 380 -28 -156 -203 -272 -251
-175 -100 76 132 -65 -67 316 -67 -176 -208 -272 -251
-200 -124 76 137 -126 -11 287 -67 -167 -208 -268 -241
-171 -105 66 161 -138 -23 277 -67 -147 -184 -233 -217
-112 -105 7 137 -119 -19 272 -63 -138 -144 -194 -181
-122 -85 37 107 -60 -48 219 -82 -147 -119 -171 -157
-93 -51 42 102 -80 -23 165 -108 -167 -124 -176 -162
-98 -46 52 71 -68 -4 155 -108 -152 -129 -181 -172
-93 -61 32 71 -75 3 121 -108 -143 -109 -156 -147
-107 -51 56 76 -63 -14 92 -103 -133 -90 -137 -128
-93 -12 81 78 -82 2 62 -108 -128 -70 -117 -106
-83 -31 52 51 -87 34 48 -108 -123 -56 -103 -92
-68 -31 37 56 -68 10 33 -112 -128 -51 -98 -82
-44 -7 37 48 -53 2 23 -112 -123 -51 -93 -77
-49 -7 42 24 -41 14 -5 -137 -147 -41 -83 -67
-49 -36 13 27 -46 17 -29 -149 -157 -56 -93 -82
-49 -17 32 41 -31 -12 -34 -158 -157 -60 -103 -86
-78 -3 75 34 -40 7 -34 -158 -147 -60 -98 -81
-156 -26 130 41 -76 35 -40 -158 -143 -56 -88 -71
-112 -7 105 92 -142 51 -30 -149 -133 -51 -83 -66
-49 21 69 60 -108 48 -16 -129 -113 -36 -73 -51
-39 17 55 15 -59 45 -21 -134 -118 -17 -54 -32
-54 6 60 12 -47 36 -25 -139 -123 -17 -54 -32
-59 -4 55 24 -57 33 -30 -149 -128 -21 -59 -35
-73 1 74 32 -57 26 -45 -153 -133 -26 -59 -35
-54 6 60 36 -73 38 -64 -164 -147 -31 -59 -45
-34 16 50 24 -57 33 -64 -164 -143 -36 -63 -49
-16 40 55 9 -42 33 -60 -159 -133 -31 -63 -45
-25 30 54 -12 -35 48 -64 -159 -133 -26 -54 -40
-35 1 35 -2 -39 42 -74 -164 -138 -21 -54 -34
-25 -18 6 17 -34 18 -69 -159 -128 -20 -54 -34
-21 -8 12 21 -15 -5 -94 -174 -147 -11 -44 -24
-30 -8 21 14 -16 2 -94 -179 -152 -30 -63 -39
-30 -4 25 19 -25 7 -89 -169 -147 -35 -68 -48
-25 1 25 17 -27 11 -84 -166 -138 -25 -59 -39
-25 16 40 12 -24 12 -84 -166 -138 -20 -44 -32
-25 16 40 4 -32 27 -89 -171 -143 -20 -44 -32
-25 15 40 4 -32 27 -89 -171 -143 -20 -49 -32
-30 15 45 4 -32 27 -94 -171 -138 -16 -44 -27
-16 39 55 7 -37 30 -99 -171 -143 -11 -44 -17
-11 39 50 -12 -35 47 -108 -181 -153 -16 -49 -22
-2 19 21 -14 -30 44 -128 -181 -148 -20 -49 -26
-25 15 40 -9 -11 20 -133 -186 -144 -20 -49 -21
-40 10 50 4 -32 27 -133 -186 -144 -20 -49 -26
-21 18 40 14 -44 29 -128 -182 -144 -20 -49 -26
-16 18 35 1 -30 28 -133 -177 -144 -11 -34 -21
-2 18 21 -2 -25 26 -123 -177 -139 -6 -24 -11
3 23 21 -9 -11 19 -133 -177 -139 -1 -20 -6
-16 38 55 -14 -8 21 -138 -177 -134 -1 -24 -4
-21 28 50 -12 -35 46 -133 -182 -139 3 -20 0
-21 23 45 -4 -35 38 -123 -167 -134 -1 -24 -4
-25 33 57 -2 -32 33 -123 -162 -124 8 -10 15
-35 43 77 -4 -41 45 -128 -157 -119 18 -1 29
8 14 5 -4 -56 60 -123 -159 -119 27 14 39
47 28 -20 -11 1 10 -123 -155 -119 32 23 49
57 82 24 -37 33 4 -138 -164 -124 37 23 49
66 77 10 -69 16 53 -147 -169 -129 32 19 44
76 33 -44 -71 27 44 -162 -179 -139 27 14 40
57 18 -40 -54 59 -5 -167 -179 -134 18 4 35
42 38 -5 -37 48 -10 -157 -174 -124 23 14 54
66 77 10 -40 23 16 -147 -164 -119 32 19 61
76 33 -44 -71 27 43 -157 -164 -124 37 23 66
105 9 -97 -54 59 -6 -177 -185 -139 32 23 61
130 33 -98 -57 100 -44 -172 -175 -129 18 9 46
76 77 0 -81 113 -33 -182 -175 -129 32 28 61
61 76 15 -76 37 38 -172 -170 -124 37 33 61
125 96 -29 -69 22 45 -147 -146 -101 48 38 56
86 56 -30 -111 76 33 -167 -156 -110 67 58 72
42 61 19 -71 57 13 -196 -185 -140 67 53 67
169 81 -88 -52 11 40 -167 -156 -106 33 23 52
198 66 -132 -125 128 -4 -148 -141 -96 67 58 96
37 61 24 -132 164 -33 -231 -209 -164 87 82 121
101 42 -59 -49 6 42 -246 -211 -154 28 28 62
140 52 -88 -72 79 -8 -168 -148 -91 38 43 88
66 81 15 -96 113 -18 -197 -172 -120 111 126 171
125 96 -29 -74 25 48 -207 -182 -120 92 111 152
105 100 -5 -111 76 33 -197 -167 -101 92 111 157
169 105 -64 -103 54 47 -217 -182 -110 116 136 181
164 110 -54 -137 116 20 -212 -162 -91 112 131 176
130 115 -15 -137 108 28 -241 -192 -121 142 155 212
115 65 -49 -123 72 50 -246 -197 -121 117 136 187
135 114 -20 -91 81 8 -241 -178 -97 112 131 177
154 129 -25 -125 77 47 -227 -173 -87 137 155 197
179 124 -55 -142 88 53 -261 -198 -116 151 170 216
198 99 -99 -152 116 35 -266 -207 -121 132 160 202
223 143 -80 -149 147 1 -266 -203 -111 132 165 214
193 163 -30 -184 150 31 -261 -193 -102 147 185 238
164 133 -30 -177 111 66 -280 -217 -121 166 204 262
188 181 -6 -148 97 52 -291 -212 -111 147 194 253
193 191 -1 -184 97 88 -286 -212 -111 166 214 272
208 181 -26 -191 97 95 -311 -227 -126 171 214 277
218 147 -70 -194 117 78 -311 -229 -126 161 204 267
213 118 -94 -182 144 39 -301 -229 -126 156 209 268
188 123 -64 -165 153 12 -301 -224 -121 161 209 273
193 123 -69 -155 126 29 -311 -224 -121 166 214 273
262 128 -133 -157 131 26 -296 -214 -116 171 224 278
271 147 -123 -194 197 -3 -301 -219 -121 181 233 293
252 128 -123 -208 197 11 -325 -239 -136 176 228 288
242 89 -152 -189 187 2 -340 -244 -136 161 214 275
252 123 -128 -165 197 -32 -325 -229 -121 161 214 280
285 152 -133 -187 190 -3 -301 -210 -97 171 228 295
261 118 -143 -218 209 9 -316 -220 -111 195 253 319
231 128 -103 -189 202 -13 -340 -245 -136 186 238 304
241 167 -74 -179 167 12 -330 -235 -131 162 213 280
212 172 -40 -204 158 46 -325 -230 -126 162 223 281
197 142 -55 -192 126 65 -335 -235 -136 162 223 281
187 133 -54 -169 126 43 -320 -225 -126 152 208 271
178 133 -45 -160 121 39 -306 -210 -107 162 213 271
153 128 -25 -155 112 43 -306 -206 -102 172 223 281
168 122 -45 -140 89 51 -301 -212 -111 177 223 286
197 117 -79 -145 107 38 -306 -217 -116 167 208 273
192 136 -55 -157 138 18 -316 -222 -121 157 198 263
168 141 -28 -164 124 39 -316 -227 -121 148 184 249
178 141 -38 -155 97 56 -306 -222 -126 138 179 239
178 117 -62 -160 107 51 -291 -212 -126 133 174 229
163 93 -71 -148 119 27 -291 -212 -126 123 159 220
148 107 -42 -128 116 11 -281 -203 -121 113 149 205
139 107 -33 -128 94 32 -262 -188 -103 123 149 206
114 88 -27 -123 85 37 -257 -178 -93 128 159 206
104 102 -3 -101 70 30 -242 -179 -93 133 154 206
70 88 17 -103 53 49 -228 -165 -78 123 140 191
46 102 55 -79 26 52 -218 -160 -73 133 144 191
60 112 51 -73 -4 78 -218 -160 -83 128 135 181
80 106 26 -85 5 81 -194 -145 -68 118 125 169
109 106 -3 -93 27 66 -194 -140 -68 128 130 164
90 96 6 -107 56 52 -194 -140 -64 118 120 144
70 87 17 -93 42 51 -194 -135 -59 109 105 125
75 96 21 -78 27 52 -194 -130 -54 104 91 115
51 72 21 -85 27 59 -170 -118 -44 99 81 105
41 92 51 -61 15 47 -155 -108 -39 104 81 106
51 100 50 -66 -4 72 -141 -103 -34 99 71 97
21 32 12 -76 1 76 -136 -98 -29 94 61 82
12 37 26 -27 5 23 -150 -103 -39 89 52 72
12 37 26 -25 -6 32 -136 -98 -34 69 32 53
-3 32 36 -25 -6 32 -126 -93 -34 69 27 38
-3 37 41 -15 -19 35 -107 -84 -34 65 27 30
12 56 45 -17 -21 39 -107 -84 -39 60 18 17
12 42 31 -34 -16 50 -102 -79 -34 50 8 2
36 56 21 -27 -9 36 -77 -65 -20 50 -2 -3
7 51 45 -46 8 38 -63 -60 -20 55 -2 -3
-12 37 50 -29 -18 48 -58 -55 -15 51 -11 -13
-26 22 49 -13 -30 43 -53 -55 -20 51 -11 -13
-70 -16 55 2 -37 35 -53 -60 -25 41 -21 -21
-70 -12 58 42 -62 19 -53 -65 -40 31 -30 -31
-56 -12 44 40 -64 23 -43 -70 -50 12 -50 -51
-26 12 38 33 -50 15 -33 -70 -50 3 -55 -61
-7 8 15 7 -32 24 -38 -75 -60 3 -60 -61
-22 -2 20 -1 -11 11 -43 -82 -60 -7 -69 -75
-51 -2 49 11 -21 8 -19 -62 -50 -16 -74 -73
-66 8 73 26 -50 23 -19 -67 -55 -7 -64 -63
-66 -21 44 28 -69 40 -14 -72 -60 -16 -79 -68
-57 -35 21 42 -54 11 -33 -82 -79 -26 -84 -78
-42 -32 10 45 -38 -8 -19 -77 -74 -45 -99 -88
-37 -17 20 35 -25 -11 -19 -82 -84 -45 -99 -93
-37 -17 20 25 -28 1 -28 -82 -84 -54 -108 -106
-52 -36 16 25 -28 1 -19 -82 -84 -54 -108 -111
-62 -17 45 42 -33 -10 -24 -88 -95 -54 -113 -116
-57 -3 54 40 -53 14 -19 -83 -85 -59 -123 -126
-42 11 53 30 -55 25 -14 -83 -85 -54 -118 -116
-52 2 54 16 -47 32 -28 -102 -95 -50 -118 -116
-71 -36 35 25 -52 28 -33 -107 -100 -59 -128 -131
-57 -41 16 54 -52 -1 -9 -97 -90 -69 -128 -129
-96 -41 55 49 -36 -13 -19 -112 -105 -59 -118 -119
-96 -46 50 69 -75 6 -38 -132 -124 -69 -133 -134
-62 -17 45 71 -72 1 -5 -92 -90 -84 -143 -143
-57 -8 49 40 -53 13 10 -83 -75 -50 -104 -104
-76 -14 63 33 -52 19 -9 -99 -95 -30 -89 -85
-71 6 78 45 -69 24 -19 -104 -95 -50 -104 -94
-52 10 63 32 -74 41 -9 -94 -80 -54 -104 -94
6 20 15 21 -57 36 -19 -109 -95 -40 -94 -84
-52 1 54 -13 -4 17 -28 -114 -100 -50 -104 -98
-32 1 34 25 -52 27 -24 -119 -105 -54 -108 -108
20 10 -9 15 -32 17 5 -104 -90 -54 -108 -108
-53 -5 47 -15 15 0 -14 -119 -114 -45 -94 -92
-53 -38 14 28 -50 22 -43 -138 -129 -64 -118 -116
-92 -19 72 44 -33 -11 -25 -115 -105 -79 -133 -131
-150 -5 144 54 -82 27 -10 -105 -95 -53 -108 -116
29 5 -25 76 -147 70 14 -76 -70 -49 -108 -111
176 5 -172 -18 27 -9 38 -56 -41 -29 -84 -87
-53 0 52 -91 174 -82 -25 -120 -110 -5 -64 -61
-111 0 110 25 -52 27 -98 -178 -163 -58 -123 -115
-146 5 150 54 -110 56 -20 -105 -85 -112 -167 -154
-107 9 115 69 -148 78 -1 -86 -70 -34 -84 -81
-48 -5 42 48 -111 63 14 -66 -51 -14 -60 -56
-48 -19 28 25 -45 19 -6 -86 -66 5 -40 -37
-28 9 36 32 -38 5 -20 -97 -75 -5 -50 -52
0 24 23 9 -32 23 -20 -102 -80 -19 -64 -64
-24 19 42 -13 -11 23 -29 -107 -85 -19 -69 -69
-38 24 61 2 -33 30 -44 -122 -100 -24 -74 -74
-38 19 56 6 -49 42 -34 -117 -95 -39 -94 -84
-53 5 57 9 -47 37 -25 -102 -80 -34 -84 -74
-19 19 37 23 -55 31 -34 -107 -85 -24 -69 -54
-5 34 38 0 -28 28 -25 -97 -70 -19 -64 -53
-14 44 57 -14 -21 36 -21 -102 -75 -5 -45 -34
-43 34 76 -15 -35 50 -35 -108 -85 -5 -40 -29
-28 33 61 5 -59 54 -35 -103 -76 -10 -45 -34
-58 47 105 -3 -44 46 -35 -98 -71 -5 -40 -29
-48 43 91 5 -81 75 -30 -98 -71 0 -40 -24
-38 33 71 2 -69 66 -30 -98 -67 5 -35 -17
-48 43 91 2 -54 51 -30 -98 -71 14 -30 -12
-67 28 95 2 -69 66 -30 -98 -67 9 -30 -22
-67 13 80 19 -81 61 -35 -94 -62 9 -30 -22
-58 47 105 26 -73 46 -30 -84 -47 14 -30 -22
-19 52 71 5 -81 75 -40 -96 -57 19 -21 -12
10 72 61 -17 -45 61 -50 -105 -71 9 -25 -21
19 87 67 -41 -26 66 -65 -120 -86 5 -30 -31
0 101 100 -53 -24 77 -69 -135 -101 -10 -45 -41
-9 82 90 -51 -50 100 -74 -144 -111 -24 -60 -46
-9 8 16 -37 -50 86 -84 -154 -115 -29 -60 -46
-5 17 22 0 -13 12 -84 -149 -111 -29 -64 -46
-5 27 32 -7 -14 20 -60 -120 -86 -24 -60 -41
-9 7 16 -12 -19 30 -55 -125 -91 0 -35 -19
-38 -12 26 0 -13 11 -74 -144 -111 -10 -40 -29
-48 3 51 24 -32 6 -60 -136 -106 -23 -60 -44
-77 22 99 21 -50 26 -40 -121 -96 -18 -45 -34
-82 56 138 26 -88 60 -40 -116 -91 -4 -35 -24
-53 41 95 12 -110 96 -35 -116 -91 -4 -35 -24
-48 -3 46 5 -74 68 -35 -116 -91 -4 -30 -23
-19 -3 17 24 -47 21 -35 -116 -86 -4 -35 -23
-5 2 8 10 -18 7 -30 -111 -86 -4 -30 -18
-28 75 104 0 -7 5 -55 -136 -107 -4 -30 -18
-58 80 139 -25 -66 89 -65 -141 -121 -23 -55 -33
-53 41 95 -12 -99 109 -74 -152 -136 -33 -64 -52
-24 -22 3 5 -74 68 -65 -147 -131 -52 -84 -70
-33 -3 31 21 -14 -10 -55 -138 -126 -48 -79 -70
-24 26 51 16 -32 14 -40 -123 -107 -37 -64 -55
-28 65 94 -2 -38 38 -35 -118 -102 -22 -50 -41
-24 26 51 -18 -60 79 -35 -123 -107 -17 -50 -36
-28 16 45 0 -37 38 -46 -138 -121 -22 -50 -41
-38 41 80 7 -36 30 -36 -128 -112 -37 -74 -55
-67 26 94 -1 -58 60 -31 -133 -112 -32 -64 -49
-58 -61 -2 21 -80 60 -56 -147 -126 -32 -69 -49
-48 2 51 60 -27 -31 -46 -134 -116 -47 -79 -64
-48 50 99 23 -49 26 -27 -119 -103 -37 -69 -54
-43 31 73 0 -73 74 -46 -148 -137 -22 -55 -40
-58 21 78 7 -58 53 -56 -158 -147 -56 -84 -74
-63 6 68 19 -68 50 -31 -134 -122 -66 -104 -86
-48 -8 39 29 -66 37 -27 -124 -113 -47 -79 -67
-53 5 58 28 -44 15 -17 -124 -108 -37 -79 -62
-48 25 73 24 -56 32 -22 -124 -113 -32 -69 -52
-53 20 73 12 -61 49 -27 -129 -113 -32 -69 -52
-72 10 82 16 -63 47 -22 -131 -117 -32 -69 -52
-87 1 88 31 -77 46 -22 -136 -117 -37 -74 -56
-97 15 112 43 -88 45 -12 -131 -117 -42 -74 -61
-82 5 87 41 -105 64 -12 -131 -122 -37 -69 -61
-58 1 59 38 -85 46 -12 -126 -113 -42 -74 -61
-28 15 43 28 -59 29 -17 -131 -117 -42 -74 -56
-34 15 48 7 -36 28 -27 -146 -127 -42 -79 -66
-49 -4 44 9 -41 31 -31 -146 -132 -56 -89 -64
-44 -4 39 26 -46 19 -36 -155 -137 -61 -99 -69
-49 20 68 23 -41 17 -36 -151 -132 -70 -105 -74
-59 25 83 14 -58 43 -22 -142 -127 -65 -100 -74
-73 0 73 16 -71 53 -22 -142 -132 -55 -95 -74
-54 0 54 35 -73 36 -27 -151 -137 -60 -100 -78
-44 0 44 26 -54 27 -31 -151 -142 -70 -100 -88
-34 9 43 21 -44 22 -36 -156 -147 -70 -100 -82
-44 24 68 12 -38 26 -31 -156 -147 -70 -100 -82
-64 -10 54 9 -56 46 -31 -151 -142 -65 -100 -77
-49 0 49 36 -59 22 -22 -147 -132 -60 -90 -68
-59 14 73 23 -49 24 -22 -147 -142 -55 -85 -58
-64 18 83 21 -66 43 -31 -149 -142 -65 -95 -73
-59 8 68 21 -73 51 -31 -149 -142 -65 -100 -71
-49 -11 39 25 -63 38 -17 -139 -137 -70 -105 -75
-49 -21 29 29 -44 13 -22 -139 -137 -60 -95 -71
-64 -25 40 34 -39 3 -12 -139 -127 -60 -90 -71
-59 -16 43 44 -52 7 -27 -153 -142 -55 -85 -71
-44 13 57 37 -51 13 -27 -153 -142 -60 -95 -80
-44 28 72 15 -51 35 -17 -144 -132 -60 -90 -79
-68 33 101 8 -58 50 -17 -144 -137 -55 -90 -70
-73 23 96 17 -85 67 -12 -140 -132 -55 -100 -74
-44 -11 33 24 -85 59 -8 -135 -122 -60 -100 -74
-64 -1 63 27 -39 11 -12 -140 -127 -55 -95 -70
-98 -21 77 32 -64 31 -27 -154 -148 -65 -100 -74
-73 23 96 59 -88 28 -17 -145 -138 -80 -114 -87
-117 18 135 24 -85 59 -8 -130 -128 -70 -100 -77
-127 -1 126 49 -126 76 -12 -145 -143 -60 -90 -68
23 18 -5 63 -127 62 2 -130 -123 -70 -100 -77
48 13 -35 -21 13 6 -3 -130 -123 -50 -85 -58
-103 18 121 -31 41 -11 -56 -179 -172 -46 -80 -53
-64 8 72 42 -112 69 -61 -186 -162 -94 -129 -97
106 3 -103 27 -68 40 -9 -127 -109 -99 -129 -91
-54 -2 53 -55 104 -50 -23 -156 -143 -46 -70 -32
-34 12 47 27 -54 26 -71 -200 -192 -70 -100 -62
-29 12 42 10 -41 30 -9 -137 -128 -119 -148 -111
-73 -12 62 8 -36 27 -18 -152 -148 -60 -85 -62
-117 -26 92 41 -68 25 -32 -156 -148 -80 -109 -86
-117 -2 116 70 -105 33 -32 -147 -138 -84 -114 -84
-59 12 72 58 -117 57 -13 -132 -123 -69 -100 -65
-59 2 62 22 -66 41 -13 -133 -123 -54 -85 -45
-44 7 52 27 -61 31 -32 -153 -143 -54 -85 -45
-44 17 62 17 -48 29 -32 -157 -148 -74 -105 -65
-64 12 77 13 -53 39 -52 -167 -157 -74 -109 -69
-49 22 72 25 -71 44 -47 -167 -157 -84 -119 -83
-49 12 62 13 -61 46 -32 -153 -148 -89 -119 -83
-49 -7 43 17 -56 36 -23 -148 -143 -79 -105 -78
-39 22 61 27 -46 17 -32 -157 -153 -69 -100 -78
-40 21 61 9 -51 41 -37 -167 -157 -84 -119 -88
-45 21 65 9 -50 40 -23 -154 -148 -93 -124 -98
-79 7 85 13 -55 43 -24 -154 -149 -74 -109 -77
-89 -8 80 37 -82 46 -19 -150 -139 -73 -110 -77
-74 -3 70 49 -84 36 4 -140 -135 -68 -101 -66
-64 7 70 39 -72 33 -10 -150 -144 -59 -96 -61
-89 -22 66 29 -67 38 -15 -155 -144 -68 -105 -71
-89 -27 61 56 -77 22 -19 -150 -144 -73 -105 -71
-89 -32 56 59 -75 17 -24 -155 -154 -68 -105 -71
-84 -22 61 61 -72 12 -10 -150 -149 -73 -105 -71
-99 -12 86 54 -72 19 0 -145 -144 -73 -101 -70
-89 -27 61 56 -92 37 -5 -145 -144 -64 -96 -65
-89 -42 46 59 -75 17 -10 -146 -144 -64 -101 -65
-99 -27 71 66 -67 2 -10 -141 -135 -64 -96 -65
-79 2 80 64 -85 22 0 -141 -135 -59 -96 -60
-74 1 75 39 -79 41 0 -146 -144 -64 -101 -65
-94 -13 81 37 -74 38 -19 -165 -164 -73 -110 -73
-84 6 90 54 -87 34 -15 -165 -159 -93 -130 -93
-64 -13 51 39 -87 48 -29 -170 -169 -93 -125 -93
-84 -43 41 39 -57 19 -15 -161 -159 -98 -135 -102
-99 -38 61 64 -62 0 -10 -156 -159 -93 -120 -93
-79 10 89 69 -80 12 0 -153 -149 -88 -115 -88
-64 0 65 35 -84 50 14 -138 -139 -78 -115 -82
-55 0 56 32 -64 33 -15 -167 -159 -68 -105 -72
-74 0 75 27 -55 29 -15 -158 -154 -93 -125 -87
-40 -10 31 37 -74 38 -5 -153 -149 -83 -115 -77
-35 -19 17 25 -35 11 0 -153 -144 -73 -101 -62
-133 -24 110 27 -26 -1 -10 -158 -159 -68 -101 -57
-123 -19 105 78 -121 43 -19 -163 -165 -78 -110 -72
-103 -14 90 71 -114 43 19 -128 -131 -88 -115 -80
-147 -5 143 58 -96 38 19 -133 -136 -59 -86 -51
-74 -19 55 76 -145 69 9 -144 -140 -68 -96 -60
-16 -19 -3 46 -65 18 19 -129 -131 -73 -110 -75
-103 0 103 17 -7 -10 -5 -164 -155 -68 -101 -70
27 -10 -37 51 -103 52 -29 -188 -180 -93 -135 -104
101 0 -101 -8 31 -24 0 -159 -155 -112 -154 -123
-108 0 108 -49 100 -51 -44 -203 -204 -88 -125 -89
-172 14 186 55 -108 53 -68 -227 -223 -132 -169 -128
-99 -14 85 80 -179 99 4 -149 -145 -156 -193 -147
-69 -44 25 57 -92 35 28 -124 -121 -83 -105 -69
-128 -34 94 57 -47 -10 9 -141 -136 -53 -81 -50
-103 -29 74 82 -111 29 -5 -151 -151 -72 -96 -62
-69 -19 50 67 -89 22 9 -136 -132 -82 -110 -67
-113 -19 94 45 -60 15 0 -146 -132 -63 -91 -52
-113 -11 103 67 -104 37 -24 -166 -156 -63 -101 -57
-133 -25 109 62 -108 46 -5 -146 -137 -82 -120 -77
-152 -25 128 79 -121 42 -10 -161 -146 -63 -101 -62
-113 -11 103 89 -140 51 -10 -161 -146 -72 -110 -76
-84 -20 65 62 -108 46 -10 -161 -151 -77 -115 -81
-90 -20 70 52 -75 22 -24 -166 -161 -82 -115 -86
-100 -6 94 55 -80 25 -29 -171 -161 -87 -115 -90
-80 23 103 53 -97 44 -34 -181 -171 -87 -115 -90
-104 8 112 28 -91 62 -34 -176 -166 -91 -125 -95
-124 -30 94 48 -108 59 -39 -181 -166 -86 -115 -90
-109 8 117 77 -109 31 -44 -171 -156 -81 -115 -84
-60 -6 54 50 -113 61 -16 -157 -141 -71 -105 -69
-80 -25 55 33 -57 23 -35 -181 -166 -62 -91 -49
-90 -45 45 52 -67 14 -35 -186 -171 -81 -110 -69
-65 -41 25 67 -67 -1 -35 -181 -166 -86 -115 -74
-65 -12 54 52 -45 -8 -50 -188 -181 -81 -105 -64
-80 -12 69 38 -59 20 -55 -203 -190 -91 -115 -73
-56 3 60 45 -74 28 -55 -193 -181 -101 -130 -87
-70 36 105 26 -58 31 -40 -178 -156 -101 -125 -92
-80 27 106 16 -88 71 -25 -164 -146 -81 -115 -87
-80 3 82 26 -94 67 -45 -178 -166 -71 -115 -78
-90 6 96 38 -82 43 -50 -188 -171 -91 -135 -102
-104 -22 82 41 -94 52 -45 -188 -171 -101 -144 -105
-109 -22 87 62 -94 31 -55 -198 -181 -96 -135 -100
-100 -42 58 64 -99 33 -55 -194 -181 -106 -140 -105
-119 -61 58 70 -80 9 -50 -184 -171 -101 -135 -100
-109 -37 72 89 -89 0 -35 -170 -156 -91 -120 -90
-109 6 115 74 -90 18 -20 -150 -141 -71 -105 -71
-75 30 105 52 -112 61 -17 -150 -137 -57 -86 -55
-36 21 57 23 -90 68 -41 -174 -161 -52 -81 -50
-57 11 67 8 -46 40 -60 -194 -181 -76 -110 -80
-91 11 101 23 -61 40 -65 -194 -181 -96 -130 -99
-71 26 96 40 -95 57 -60 -189 -176 -101 -135 -99
-96 2 97 23 -83 61 -65 -194 -181 -95 -125 -94
-66 -8 57 47 -96 49 -60 -191 -181 -100 -130 -99
-81 11 91 37 -61 24 -46 -181 -171 -100 -135 -102
-91 21 111 35 -85 51 -51 -186 -177 -90 -120 -92
-105 -22 82 35 -100 66 -51 -186 -177 -100 -125 -102
-96 -8 87 64 -93 30 -51 -186 -177 -100 -130 -102
-57 -8 48 52 -91 39 -36 -172 -157 -95 -130 -102
-61 6 66 33 -52 20 -51 -186 -172 -80 -115 -82
-91 2 92 28 -63 36 -51 -186 -177 -95 -130 -101
-96 -22 73 45 -91 46 -51 -176 -167 -95 -130 -101
-110 -23 87 59 -84 24 -51 -177 -172 -90 -125 -96
-125 20 145 66 -98 31 -26 -163 -157 -90 -125 -101
-110 -28 82 52 -134 82 -12 -143 -142 -75 -110 -81
-76 -23 53 69 -95 26 -26 -163 -162 -61 -91 -67
-52 -9 43 49 -64 14 -17 -148 -152 -80 -110 -84
-52 -14 37 30 -47 16 -7 -138 -142 -75 -110 -84
-52 -23 28 33 -44 11 -17 -148 -147 -65 -101 -75
-52 -9 42 37 -40 3 -26 -163 -167 -75 -115 -79
-71 -4 66 30 -47 16 -36 -173 -172 -90 -130 -99
-115 -28 86 37 -68 31 -26 -163 -167 -100 -140 -109
-140 -33 106 71 -100 29 -21 -165 -167 -95 -135 -104
-120 -33 86 86 -123 36 -12 -150 -152 -90 -125 -103
-91 -9 81 76 -103 26 2 -140 -147 -80 -110 -93
-86 -14 71 50 -86 36 2 -145 -152 -70 -105 -83
-91 -15 76 50 -78 28 -7 -155 -162 -75 -110 -88
-110 -34 76 52 -83 31 -2 -155 -157 -85 -120 -93
-110 -34 76 71 -93 20 -2 -155 -162 -80 -115 -88
-105 -24 81 71 -93 20 -12 -170 -167 -85 -120 -91
-91 -34 57 64 -93 28 -2 -160 -158 -95 -125 -101
-76 -29 47 63 -73 11 -12 -166 -168 -80 -115 -91
-76 38 114 53 -60 8 -18 -176 -173 -90 -120 -101
-76 -1 76 19 -94 75 -22 -180 -183 -100 -135 -106
-76 -45 32 38 -75 37 -32 -190 -192 -105 -135 -111
-96 -25 72 60 -53 -6 -13 -176 -173 -109 -140 -119
-61 23 85 60 -83 23 -3 -166 -168 -95 -125 -105
-76 -1 76 19 -72 54 -3 -161 -163 -90 -120 -100
-105 -35 71 38 -75 37 -3 -166 -163 -85 -125 -100
-101 -35 67 70 -87 18 -3 -171 -163 -84 -125 -100
-91 -11 81 68 -83 16 -13 -173 -168 -89 -125 -100
-81 -11 71 51 -85 35 -27 -182 -173 -94 -130 -103
-91 -35 57 46 -75 30 -18 -178 -173 -89 -125 -103
-96 -16 81 63 -73 11 -8 -168 -164 -84 -120 -98
-96 -1 96 56 -87 32 -3 -158 -159 -74 -105 -88
-96 -16 81 48 -95 47 -13 -163 -164 -69 -101 -78
-86 -6 81 56 -87 32 -3 -168 -164 -74 -101 -83
-91 -1 91 46 -82 37 1 -158 -154 -74 -105 -83
-76 -25 50 46 -90 45 -13 -173 -164 -69 -105 -77
-76 -35 40 50 -63 13 -32 -187 -184 -79 -115 -92
-91 -35 55 55 -58 3 -13 -174 -169 -99 -135 -107
-105 -25 79 63 -73 11 -3 -164 -159 -83 -120 -92
-115 -20 94 65 -92 28 -18 -169 -154 -78 -110 -87
-110 3 112 67 -104 37 -13 -169 -159 -73 -105 -92
-144 3 146 53 -111 57 -22 -183 -179 -68 -110 -95
-164 12 176 70 -145 74 -22 -193 -188 -88 -130 -114
-125 36 161 75 -170 94 1 -183 -179 -98 -144 -129
-76 36 112 44 -143 99 21 -169 -154 -103 -154 -144
-203 -7 196 19 -94 74 25 -159 -135 -88 -144 -149
-232 -21 211 104 -199 95 30 -156 -120 -68 -135 -144
-218 2 220 126 -221 95 64 -132 -96 -59 -125 -143
-198 7 205 107 -219 110 69 -146 -105 -10 -71 -94
-159 -31 128 95 -201 105 50 -151 -105 14 -37 -65
-120 -41 79 94 -143 48 64 -117 -66 53 6 -35
-115 -46 69 80 -99 18 79 -44 21 106 50 -11
-66 -7 59 80 -92 11 99 28 138 185 113 32
-3 36 39 38 -62 25 128 131 284 316 230 122
69 65 -4 -15 -21 37 143 229 445 478 357 215
162 100 -62 -65 36 30 128 297 592 668 519 332
250 99 -150 -129 112 18 84 335 694 883 738 532
333 60 -272 -173 200 -25 60 403 802 1059 919 708
406 79 -326 -195 302 -106 35 482 924 1195 1051 835
469 74 -395 -241 366 -123 1 545 1022 1337 1178 967
503 74 -429 -271 432 -160 -37 584 1061 1400 1222 1031
508 69 -439 -288 466 -177 -61 604 1026 1352 1158 1017
488 45 -443 -288 474 -185 -91 550 924 1182 991 924
435 -57 -492 -266 466 -199 -115 433 719 972 776 787
347 -170 -516 -188 464 -274 -144 228 392 698 513 597
313 -292 -605 -88 432 -343 -154 -22 -18 327 181 352
278 -355 -633 -10 459 -448 -140 -242 -398 -126 -224 32
273 -390 -663 38 455 -494 -81 -262 -496 -570 -644 -328
244 -395 -639 58 468 -526 -37 -223 -472 -756 -834 -528
225 -424 -649 75 441 -517 -22 -227 -492 -766 -883 -616
200 -492 -692 99 437 -536 -32 -286 -565 -800 -941 -699
171 -487 -658 146 446 -592 -22 -315 -590 -888 -1034 -816
103 -473 -576 158 414 -572 -4 -330 -604 -902 -1059 -869
44 -482 -526 185 339 -524 0 -364 -629 -897 -1054 -884
-28 -473 -445 219 285 -504 24 -360 -609 -902 -1059 -908
-72 -458 -386 250 208 -459 44 -360 -600 -883 -1049 -908
-67 -434 -367 265 157 -422 78 -336 -551 -863 -1039 -913
-141 -424 -283 250 150 -400 112 -277 -478 -814 -990 -889
-160 -399 -239 282 71 -353 142 -224 -404 -746 -922 -839
-126 -355 -229 279 39 -319 181 -170 -346 -683 -868 -799
-189 -326 -137 240 51 -292 205 -131 -302 -639 -819 -755
-209 -287 -78 257 -26 -231 239 -77 -243 -600 -775 -730
-268 -268 0 248 -65 -182 308 5 -155 -556 -731 -696
-336 -224 112 268 -134 -134 356 63 -102 -482 -658 -623
-316 -209 107 280 -224 -56 405 125 -28 -434 -604 -579
-282 -229 54 262 -211 -51 435 154 10 -360 -531 -515
-238 -205 34 255 -168 -87 444 169 29 -316 -487 -480
-243 -195 49 221 -136 -85 469 208 63 -297 -468 -466
-248 -200 49 219 -146 -72 488 232 88 -253 -424 -432
-258 -181 78 224 -148 -75 521 276 137 -228 -404 -412
-297 -190 108 220 -168 -51 546 291 142 -194 -370 -393
-263 -190 74 244 -202 -41 575 311 151 -185 -351 -371
-258 -181 78 227 -168 -58 624 345 171 -185 -351 -371
-204 -186 19 220 -168 -52 624 319 132 -170 -336 -361
-92 -225 -132 195 -111 -84 634 300 98 -204 -360 -381
-258 -269 -10 159 20 -179 619 256 23 -224 -370 -381
-277 -273 3 264 -124 -140 570 178 -44 -272 -409 -410
-287 -259 27 275 -141 -134 639 222 4 -312 -434 -429
-307 -259 47 273 -158 -115 644 202 -24 -238 -346 -346
-312 -284 28 283 -178 -106 619 168 -49 -247 -346 -341
-248 -260 -12 298 -171 -128 600 139 -73 -252 -351 -341
-214 -201 13 254 -119 -136 585 119 -73 -252 -341 -331
-194 -191 3 207 -114 -94 531 75 -98 -237 -316 -307
-233 -235 -2 192 -99 -94 458 15 -146 -237 -316 -307
-199 -177 22 234 -116 -118 434 0 -146 -262 -336 -314
-165 -128 37 188 -111 -77 434 10 -122 -247 -316 -295
-131 -133 -2 146 -102 -45 380 -28 -156 -203 -272 -251
-175 -100 76 132 -65 -67 316 -67 -176 -208 -272 -251
-200 -124 76 137 -126 -11 287 -67 -167 -208 -268 -241
-171 -105 66 161 -138 -23 277 -67 -147 -184 -233 -217
-112 -105 7 137 -119 -19 272 -63 -138 -144 -194 -181
-122 -85 37 107 -60 -48 219 -82 -147 -119 -171 -157
-93 -51 42 102 -80 -23 165 -108 -167 -124 -176 -162
-98 -46 52 71 -68 -4 155 -108 -152 -129 -181 -172
-93 -61 32 71 -75 3 121 -108 -143 -109 -156 -147
-107 -51 56 76 -63 -14 92 -103 -133 -90 -137 -128
-93 -12 81 78 -82 2 62 -108 -128 -70 -117 -106
-83 -31 52 51 -87 34 48 -108 -123 -56 -103 -92
-68 -31 37 56 -68 10 33 -112 -128 -51 -98 -82
-44 -7 37 48 -53 2 23 -112 -123 -51 -93 -77
-49 -7 42 24 -41 14 -5 -137 -147 -41 -83 -67
-49 -36 13 27 -46 17 -29 -149 -157 -56 -93 -82
-49 -17 32 41 -31 -12 -34 -158 -157 -60 -103 -86
-78 -3 75 34 -40 7 -34 -158 -147 -60 -98 -81
-156 -26 130 41 -76 35 -40 -158 -143 -56 -88 -71
-112 -7 105 92 -142 51 -30 -149 -133 -51 -83 -66
-49 21 69 60 -108 48 -16 -129 -113 -36 -73 -51
-39 17 55 15 -59 45 -21 -134 -118 -17 -54 -32
-54 6 60 12 -47 36 -25 -139 -123 -17 -54 -32
-59 -4 55 24 -57 33 -30 -149 -128 -21 -59 -35
-73 1 74 32 -57 26 -45 -153 -133 -26 -59 -35
-54 6 60 36 -73 38 -64 -164 -147 -31 -59 -45
-34 16 50 24 -57 33 -64 -164 -143 -36 -63 -49
-16 40 55 9 -42 33 -60 -159 -133 -31 -63 -45
-25 30 54 -12 -35 48 -64 -159 -133 -26 -54 -40
-35 1 35 -2 -39 42 -74 -164 -138 -21 -54 -34
-25 -18 6 17 -34 18 -69 -159 -128 -20 -54 -34
-21 -8 12 21 -15 -5 -94 -174 -147 -11 -44 -24
-30 -8 21 14 -16 2 -94 -179 -152 -30 -63 -39
-30 -4 25 19 -25 7 -89 -169 -147 -35 -68 -48
-25 1 25 17 -27 11 -84 -166 -138 -25 -59 -39
-25 16 40 12 -24 12 -84 -166 -138 -20 -44 -32
-25 16 40 4 -32 27 -89 -171 -143 -20 -44 -32
-25 15 40 4 -32 27 -89 -171 -143 -20 -49 -32
-30 15 45 4 -32 27 -94 -171 -138 -16 -44 -27
-16 39 55 7 -37 30 -99 -171 -143 -11 -44 -17
-11 39 50 -12 -35 47 -108 -181 -153 -16 -49 -22
-2 19 21 -14 -30 44 -128 -181 -148 -20 -49 -26
-25 15 40 -9 -11 20 -133 -186 -144 -20 -49 -21
-40 10 50 4 -32 27 -133 -186 -144 -20 -49 -26
-21 18 40 14 -44 29 -128 -182 -144 -20 -49 -26
-16 18 35 1 -30 28 -133 -177 -144 -11 -34 -21
-2 18 21 -2 -25 26 -123 -177 -139 -6 -24 -11
3 23 21 -9 -11 19 -133 -177 -139 -1 -20 -6
-16 38 55 -14 -8 21 -138 -177 -134 -1 -24 -4
-21 28 50 -12 -35 46 -133 -182 -139 3 -20 0
-21 23 45 -4 -35 38 -123 -167 -134 -1 -24 -4
-25 33 57 -2 -32 33 -123 -162 -124 8 -10 15
-35 43 77 -4 -41 45 -128 -157 -119 18 -1 29
8 14 5 -4 -56 60 -123 -159 -119 27 14 39
47 28 -20 -11 1 10 -123 -155 -119 32 23 49
57 82 24 -37 33 4 -138 -164 -124 37 23 49
66 77 10 -69 16 53 -147 -169 -129 32 19 44
76 33 -44 -71 27 44 -162 -179 -139 27 14 40
57 18 -40 -54 59 -5 -167 -179 -134 18 4 35
42 38 -5 -37 48 -10 -157 -174 -124 23 14 54
66 77 10 -40 23 16 -147 -164 -119 32 19 61
76 33 -44 -71 27 43 -157 -164 -124 37 23 66
105 9 -97 -54 59 -6 -177 -185 -139 32 23 61
130 33 -98 -57 100 -44 -172 -175 -129 18 9 46
76 77 0 -81 113 -33 -182 -175 -129 32 28 61
61 76 15 -76 37 38 -172 -170 -124 37 33 61
125 96 -29 -69 22 45 -147 -146 -101 48 38 56
86 56 -30 -111 76 33 -167 -156 -110 67 58 72
42 61 19 -71 57 13 -196 -185 -140 67 53 67
169 81 -88 -52 11 40 -167 -156 -106 33 23 52
198 66 -132 -125 128 -4 -148 -141 -96 67 58 96
37 61 24 -132 164 -33 -231 -209 -164 87 82 121
101 42 -59 -49 6 42 -246 -211 -154 28 28 62
140 52 -88 -72 79 -8 -168 -148 -91 38 43 88
66 81 15 -96 113 -18 -197 -172 -120 111 126 171
125 96 -29 -74 25 48 -207 -182 -120 92 111 152
105 100 -5 -111 76 33 -197 -167 -101 92 111 157
169 105 -64 -103 54 47 -217 -182 -110 116 136 181
164 110 -54 -137 116 20 -212 -162 -91 112 131 176
130 115 -15 -137 108 28 -241 -192 -121 142 155 212
115 65 -49 -123 72 50 -246 -197 -121 117 136 187
135 114 -20 -91 81 8 -241 -178 -97 112 131 177
154 129 -25 -125 77 47 -227 -173 -87 137 155 197
179 124 -55 -142 88 53 -261 -198 -116 151 170 216
198 99 -99 -152 116 35 -266 -207 -121 132 160 202
223 143 -80 -149 147 1 -266 -203 -111 132 165 214
193 163 -30 -184 150 31 -261 -193 -102 147 185 238
164 133 -30 -177 111 66 -280 -217 -121 166 204 262
188 181 -6 -148 97 52 -291 -212 -111 147 194 253
193 191 -1 -184 97 88 -286 -212 -111 166 214 272
208 181 -26 -191 97 95 -311 -227 -126 171 214 277
218 147 -70 -194 117 78 -311 -229 -126 161 204 267
213 118 -94 -182 144 39 -301 -229 -126 156 209 268
188 123 -64 -165 153 12 -301 -224 -121 161 209 273
193 123 -69 -155 126 29 -311 -224 -121 166 214 273
262 128 -133 -157 131 26 -296 -214 -116 171 224 278
271 147 -123 -194 197 -3 -301 -219 -121 181 233 293
252 128 -123 -208 197 11 -325 -239 -136 176 228 288
242 89 -152 -189 187 2 -340 -244 -136 161 214 275
252 123 -128 -165 197 -32 -325 -229 -121 161 214 280
285 152 -133 -187 190 -3 -301 -210 -97 171 228 295
261 118 -143 -218 209 9 -316 -220 -111 195 253 319
231 128 -103 -189 202 -13 -340 -245 -136 186 238 304
241 167 -74 -179 167 12 -330 -235 -131 162 213 280
212 172 -40 -204 158 46 -325 -230 -126 162 223 281
197 142 -55 -192 126 65 -335 -235 -136 162 223 281
187 133 -54 -169 126 43 -320 -225 -126 152 208 271
178 133 -45 -160 121 39 -306 -210 -107 162 213 271
153 128 -25 -155 112 43 -306 -206 -102 172 223 281
168 122 -45 -140 89 51 -301 -212 -111 177 223 286
197 117 -79 -145 107 38 -306 -217 -116 167 208 273
192 136 -55 -157 138 18 -316 -222 -121 157 198 263
168 141 -28 -164 124 39 -316 -227 -121 148 184 249
178 141 -38 -155 97 56 -306 -222 -126 138 179 239
178 117 -62 -160 107 51 -291 -212 -126 133 174 229
163 93 -71 -148 119 27 -291 -212 -126 123 159 220
148 107 -42 -128 116 11 -281 -203 -121 113 149 205
139 107 -33 -128 94 32 -262 -188 -103 123 149 206
114 88 -27 -123 85 37 -257 -178 -93 128 159 206
104 102 -3 -101 70 30 -242 -179 -93 133 154 206
70 88 17 -103 53 49 -228 -165 -78 123 140 191
46 102 55 -79 26 52 -218 -160 -73 133 144 191
60 112 51 -73 -4 78 -218 -160 -83 128 135 181
80 106 26 -85 5 81 -194 -145 -68 118 125 169
109 106 -3 -93 27 66 -194 -140 -68 128 130 164
90 96 6 -107 56 52 -194 -140 -64 118 120 144
70 87 17 -93 42 51 -194 -135 -59 109 105 125
75 96 21 -78 27 52 -194 -130 -54 104 91 115
51 72 21 -85 27 59 -170 -118 -44 99 81 105
41 92 51 -61 15 47 -155 -108 -39 104 81 106
51 100 50 -66 -4 72 -141 -103 -34 99 71 97
21 32 12 -76 1 76 -136 -98 -29 94 61 82
12 37 26 -27 5 23 -150 -103 -39 89 52 72
12 37 26 -25 -6 32 -136 -98 -34 69 32 53
-3 32 36 -25 -6 32 -126 -93 -34 69 27 38
-3 37 41 -15 -19 35 -107 -84 -34 65 27 30
12 56 45 -17 -21 39 -107 -84 -39 60 18 17
12 42 31 -34 -16 50 -102 -79 -34 50 8 2
36 56 21 -27 -9 36 -77 -65 -20 50 -2 -3
7 51 45 -46 8 38 -63 -60 -20 55 -2 -3
-12 37 50 -29 -18 48 -58 -55 -15 51 -11 -13
-26 22 49 -13 -30 43 -53 -55 -20 51 -11 -13
-70 -16 55 2 -37 35 -53 -60 -25 41 -21 -21
-70 -12 58 42 -62 19 -53 -65 -40 31 -30 -31
-56 -12 44 40 -64 23 -43 -70 -50 12 -50 -51
-26 12 38 33 -50 15 -33 -70 -50 3 -55 -61
-7 8 15 7 -32 24 -38 -75 -60 3 -60 -61
-22 -2 20 -1 -11 11 -43 -82 -60 -7 -69 -75
-51 -2 49 11 -21 8 -19 -62 -50 -16 -74 -73
-66 8 73 26 -50 23 -19 -67 -55 -7 -64 -63
-66 -21 44 28 -69 40 -14 -72 -60 -16 -79 -68
-57 -35 21 42 -54 11 -33 -82 -79 -26 -84 -78
-42 -32 10 45 -38 -8 -19 -77 -74 -45 -99 -88
-37 -17 20 35 -25 -11 -19 -82 -84 -45 -99 -93
-37 -17 20 25 -28 1 -28 -82 -84 -54 -108 -106
-52 -36 16 25 -28 1 -19 -82 -84 -54 -108 -111
-62 -17 45 42 -33 -10 -24 -88 -95 -54 -113 -116
-57 -3 54 40 -53 14 -19 -83 -85 -59 -123 -126
-42 11 53 30 -55 25 -14 -83 -85 -54 -118 -116
-52 2 54 16 -47 32 -28 -102 -95 -50 -118 -116
-71 -36 35 25 -52 28 -33 -107 -100 -59 -128 -131
-57 -41 16 54 -52 -1 -9 -97 -90 -69 -128 -129
-96 -41 55 49 -36 -13 -19 -112 -105 -59 -118 -119
-96 -46 50 69 -75 6 -38 -132 -124 -69 -133 -134
-62 -17 45 71 -72 1 -5 -92 -90 -84 -143 -143
-57 -8 49 40 -53 13 10 -83 -75 -50 -104 -104
-76 -14 63 33 -52 19 -9 -99 -95 -30 -89 -85
-71 6 78 45 -69 24 -19 -104 -95 -50 -104 -94
-52 10 63 32 -74 41 -9 -94 -80 -54 -104 -94
6 20 15 21 -57 36 -19 -109 -95 -40 -94 -84
-52 1 54 -13 -4 17 -28 -114 -100 -50 -104 -98
-32 1 34 25 -52 27 -24 -119 -105 -54 -108 -108
20 10 -9 15 -32 17 5 -104 -90 -54 -108 -108
-53 -5 47 -15 15 0 -14 -119 -114 -45 -94 -92
-53 -38 14 28 -50 22 -43 -138 -129 -64 -118 -116
-92 -19 72 44 -33 -11 -25 -115 -105 -79 -133 -131
-150 -5 144 54 -82 27 -10 -105 -95 -53 -108 -116
29 5 -25 76 -147 70 14 -76 -70 -49 -108 -111
176 5 -172 -18 27 -9 38 -56 -41 -29 -84 -87
-53 0 52 -91 174 -82 -25 -120 -110 -5 -64 -61
-111 0 110 25 -52 27 -98 -178 -163 -58 -123 -115
-146 5 150 54 -110 56 -20 -105 -85 -112 -167 -154
-107 9 115 69 -148 78 -1 -86 -70 -34 -84 -81
-48 -5 42 48 -111 63 14 -66 -51 -14 -60 -56
-48 -19 28 25 -45 19 -6 -86 -66 5 -40 -37
-28 9 36 32 -38 5 -20 -97 -75 -5 -50 -52
0 24 23 9 -32 23 -20 -102 -80 -19 -64 -64
-24 19 42 -13 -11 23 -29 -107 -85 -19 -69 -69
-38 24 61 2 -33 30 -44 -122 -100 -24 -74 -74
-38 19 56 6 -49 42 -34 -117 -95 -39 -94 -84
-53 5 57 9 -47 37 -25 -102 -80 -34 -84 -74
-19 19 37 23 -55 31 -34 -107 -85 -24 -69 -54
-5 34 38 0 -28 28 -25 -97 -70 -19 -64 -53
-14 44 57 -14 -21 36 -21 -102 -75 -5 -45 -34
-43 34 76 -15 -35 50 -35 -108 -85 -5 -40 -29
-28 33 61 5 -59 54 -35 -103 -76 -10 -45 -34
-58 47 105 -3 -44 46 -35 -98 -71 -5 -40 -29
-48 43 91 5 -81 75 -30 -98 -71 0 -40 -24
-38 33 71 2 -69 66 -30 -98 -67 5 -35 -17
-48 43 91 2 -54 51 -30 -98 -71 14 -30 -12
-67 28 95 2 -69 66 -30 -98 -67 9 -30 -22
-67 13 80 19 -81 61 -35 -94 -62 9 -30 -22
-58 47 105 26 -73 46 -30 -84 -47 14 -30 -22
-19 52 71 5 -81 75 -40 -96 -57 19 -21 -12
10 72 61 -17 -45 61 -50 -105 -71 9 -25 -21
19 87 67 -41 -26 66 -65 -120 -86 5 -30 -31
0 101 100 -53 -24 77 -69 -135 -101 -10 -45 -41
-9 82 90 -51 -50 100 -74 -144 -111 -24 -60 -46
-9 8 16 -37 -50 86 -84 -154 -115 -29 -60 -46
-5 17 22 0 -13 12 -84 -149 -111 -29 -64 -46
-5 27 32 -7 -14 20 -60 -120 -86 -24 -60 -41
-9 7 16 -12 -19 30 -55 -125 -91 0 -35 -19
-38 -12 26 0 -13 11 -74 -144 -111 -10 -40 -29
-48 3 51 24 -32 6 -60 -136 -106 -23 -60 -44
-77 22 99 21 -50 26 -40 -121 -96 -18 -45 -34
-82 56 138 26 -88 60 -40 -116 -91 -4 -35 -24
-53 41 95 12 -110 96 -35 -116 -91 -4 -35 -24
-48 -3 46 5 -74 68 -35 -116 -91 -4 -30 -23
-19 -3 17 24 -47 21 -35 -116 -86 -4 -35 -23
-5 2 8 10 -18 7 -30 -111 -86 -4 -30 -18
-28 75 104 0 -7 5 -55 -136 -107 -4 -30 -18
-58 80 139 -25 -66 89 -65 -141 -121 -23 -55 -33
-53 41 95 -12 -99 109 -74 -152 -136 -33 -64 -52
-24 -22 3 5 -74 68 -65 -147 -131 -52 -84 -70
-33 -3 31 21 -14 -10 -55 -138 -126 -48 -79 -70
-24 26 51 16 -32 14 -40 -123 -107 -37 -64 -55
-28 65 94 -2 -38 38 -35 -118 -102 -22 -50 -41
-24 26 51 -18 -60 79 -35 -123 -107 -17 -50 -36
-28 16 45 0 -37 38 -46 -138 -121 -22 -50 -41
-38 41 80 7 -36 30 -36 -128 -112 -37 -74 -55
-67 26 94 -1 -58 60 -31 -133 -112 -32 -64 -49
-58 -61 -2 21 -80 60 -56 -147 -126 -32 -69 -49
-48 2 51 60 -27 -31 -46 -134 -116 -47 -79 -64
-48 50 99 23 -49 26 -27 -119 -103 -37 -69 -54
-43 31 73 0 -73 74 -46 -148 -137 -22 -55 -40
-58 21 78 7 -58 53 -56 -158 -147 -56 -84 -74
-63 6 68 19 -68 50 -31 -134 -122 -66 -104 -86
-48 -8 39 29 -66 37 -27 -124 -113 -47 -79 -67
-53 5 58 28 -44 15 -17 -124 -108 -37 -79 -62
-48 25 73 24 -56 32 -22 -124 -113 -32 -69 -52
-53 20 73 12 -61 49 -27 -129 -113 -32 -69 -52
-72 10 82 16 -63 47 -22 -131 -117 -32 -69 -52
-87 1 88 31 -77 46 -22 -136 -117 -37 -74 -56
-97 15 112 43 -88 45 -12 -131 -117 -42 -74 -61
-82 5 87 41 -105 64 -12 -131 -122 -37 -69 -61
-58 1 59 38 -85 46 -12 -126 -113 -42 -74 -61
-28 15 43 28 -59 29 -17 -131 -117 -42 -74 -56
-34 15 48 7 -36 28 -27 -146 -127 -42 -79 -66
-49 -4 44 9 -41 31 -31 -146 -132 -56 -89 -64
-44 -4 39 26 -46 19 -36 -155 -137 -61 -99 -69
-49 20 68 23 -41 17 -36 -151 -132 -70 -105 -74
-59 25 83 14 -58 43 -22 -142 -127 -65 -100 -74
-73 0 73 16 -71 53 -22 -142 -132 -55 -95 -74
-54 0 54 35 -73 36 -27 -151 -137 -60 -100 -78
-44 0 44 26 -54 27 -31 -151 -142 -70 -100 -88
-34 9 43 21 -44 22 -36 -156 -147 -70 -100 -82
-44 24 68 12 -38 26 -31 -156 -147 -70 -100 -82
-64 -10 54 9 -56 46 -31 -151 -142 -65 -100 -77
-49 0 49 36 -59 22 -22 -147 -132 -60 -90 -68
-59 14 73 23 -49 24 -22 -147 -142 -55 -85 -58
-64 18 83 21 -66 43 -31 -149 -142 -65 -95 -73
-59 8 68 21 -73 51 -31 -149 -142 -65 -100 -71
-49 -11 39 25 -63 38 -17 -139 -137 -70 -105 -75
-49 -21 29 29 -44 13 -22 -139 -137 -60 -95 -71
-64 -25 40 34 -39 3 -12 -139 -127 -60 -90 -71
-59 -16 43 44 -52 7 -27 -153 -142 -55 -85 -71
-44 13 57 37 -51 13 -27 -153 -142 -60 -95 -80
-44 28 72 15 -51 35 -17 -144 -132 -60 -90 -79
-68 33 101 8 -58 50 -17 -144 -137 -55 -90 -70
-73 23 96 17 -85 67 -12 -140 -132 -55 -100 -74
-44 -11 33 24 -85 59 -8 -135 -122 -60 -100 -74
-64 -1 63 27 -39 11 -12 -140 -127 -55 -95 -70
-98 -21 77 32 -64 31 -27 -154 -148 -65 -100 -74
-73 23 96 59 -88 28 -17 -145 -138 -80 -114 -87
-117 18 135 24 -85 59 -8 -130 -128 -70 -100 -77
-127 -1 126 49 -126 76 -12 -145 -143 -60 -90 -68
23 18 -5 63 -127 62 2 -130 -123 -70 -100 -77
48 13 -35 -21 13 6 -3 -130 -123 -50 -85 -58
-103 18 121 -31 41 -11 -56 -179 -172 -46 -80 -53
-64 8 72 42 -112 69 -61 -186 -162 -94 -129 -97
106 3 -103 27 -68 40 -9 -127 -109 -99 -129 -91
-54 -2 53 -55 104 -50 -23 -156 -143 -46 -70 -32
-34 12 47 27 -54 26 -71 -200 -192 -70 -100 -62
-29 12 42 10 -41 30 -9 -137 -128 -119 -148 -111
-73 -12 62 8 -36 27 -18 -152 -148 -60 -85 -62
-117 -26 92 41 -68 25 -32 -156 -148 -80 -109 -86
-117 -2 116 70 -105 33 -32 -147 -138 -84 -114 -84
-59 12 72 58 -117 57 -13 -132 -123 -69 -100 -65
-59 2 62 22 -66 41 -13 -133 -123 -54 -85 -45
-44 7 52 27 -61 31 -32 -153 -143 -54 -85 -45
-44 17 62 17 -48 29 -32 -157 -148 -74 -105 -65
-64 12 77 13 -53 39 -52 -167 -157 -74 -109 -69
-49 22 72 25 -71 44 -47 -167 -157 -84 -119 -83
-49 12 62 13 -61 46 -32 -153 -148 -89 -119 -83
-49 -7 43 17 -56 36 -23 -148 -143 -79 -105 -78
-39 22 61 27 -46 17 -32 -157 -153 -69 -100 -78
-40 21 61 9 -51 41 -37 -167 -157 -84 -119 -88
-45 21 65 9 -50 40 -23 -154 -148 -93 -124 -98
-79 7 85 13 -55 43 -24 -154 -149 -74 -109 -77
-89 -8 80 37 -82 46 -19 -150 -139 -73 -110 -77
-74 -3 70 49 -84 36 4 -140 -135 -68 -101 -66
-64 7 70 39 -72 33 -10 -150 -144 -59 -96 -61
-89 -22 66 29 -67 38 -15 -155 -144 -68 -105 -71
-89 -27 61 56 -77 22 -19 -150 -144 -73 -105 -71
-89 -32 56 59 -75 17 -24 -155 -154 -68 -105 -71
-84 -22 61 61 -72 12 -10 -150 -149 -73 -105 -71
-99 -12 86 54 -72 19 0 -145 -144 -73 -101 -70
-89 -27 61 56 -92 37 -5 -145 -144 -64 -96 -65
-89 -42 46 59 -75 17 -10 -146 -144 -64 -101 -65
-99 -27 71 66 -67 2 -10 -141 -135 -64 -96 -65
-79 2 80 64 -85 22 0 -141 -135 -59 -96 -60
-74 1 75 39 -79 41 0 -146 -144 -64 -101 -65
-94 -13 81 37 -74 38 -19 -165 -164 -73 -110 -73
-84 6 90 54 -87 34 -15 -165 -159 -93 -130 -93
-64 -13 51 39 -87 48 -29 -170 -169 -93 -125 -93
-84 -43 41 39 -57 19 -15 -161 -159 -98 -135 -102
-99 -38 61 64 -62 0 -10 -156 -159 -93 -120 -93
-79 10 89 69 -80 12 0 -153 -149 -88 -115 -88
-64 0 65 35 -84 50 14 -138 -139 -78 -115 -82
-55 0 56 32 -64 33 -15 -167 -159 -68 -105 -72
-74 0 75 27 -55 29 -15 -158 -154 -93 -125 -87
-40 -10 31 37 -74 38 -5 -153 -149 -83 -115 -77
-35 -19 17 25 -35 11 0 -153 -144 -73 -101 -62
-133 -24 110 27 -26 -1 -10 -158 -159 -68 -101 -57
-123 -19 105 78 -121 43 -19 -163 -165 -78 -110 -72
-103 -14 90 71 -114 43 19 -128 -131 -88 -115 -80
-147 -5 143 58 -96 38 19 -133 -136 -59 -86 -51
-74 -19 55 76 -145 69 9 -144 -140 -68 -96 -60
-16 -19 -3 46 -65 18 19 -129 -131 -73 -110 -75
-103 0 103 17 -7 -10 -5 -164 -155 -68 -101 -70
27 -10 -37 51 -103 52 -29 -188 -180 -93 -135 -104
101 0 -101 -8 31 -24 0 -159 -155 -112 -154 -123
-108 0 108 -49 100 -51 -44 -203 -204 -88 -125 -89
-172 14 186 55 -108 53 -68 -227 -223 -132 -169 -128
-99 -14 85 80 -179 99 4 -149 -145 -156 -193 -147
-69 -44 25 57 -92 35 28 -124 -121 -83 -105 -69
-128 -34 94 57 -47 -10 9 -141 -136 -53 -81 -50
-103 -29 74 82 -111 29 -5 -151 -151 -72 -96 -62
-69 -19 50 67 -89 22 9 -136 -132 -82 -110 -67
-113 -19 94 45 -60 15 0 -146 -132 -63 -91 -52
-113 -11 103 67 -104 37 -24 -166 -156 -63 -101 -57
-133 -25 109 62 -108 46 -5 -146 -137 -82 -120 -77
-152 -25 128 79 -121 42 -10 -161 -146 -63 -101 -62
-113 -11 103 89 -140 51 -10 -161 -146 -72 -110 -76
-84 -20 65 62 -108 46 -10 -161 -151 -77 -115 -81
-90 -20 70 52 -75 22 -24 -166 -161 -82 -115 -86
-100 -6 94 55 -80 25 -29 -171 -161 -87 -115 -90
-80 23 103 53 -97 44 -34 -181 -171 -87 -115 -90
-104 8 112 28 -91 62 -34 -176 -166 -91 -125 -95
-124 -30 94 48 -108 59 -39 -181 -166 -86 -115 -90
-109 8 117 77 -109 31 -44 -171 -156 -81 -115 -84
-60 -6 54 50 -113 61 -16 -157 -141 -71 -105 -69
-80 -25 55 33 -57 23 -35 -181 -166 -62 -91 -49
-90 -45 45 52 -67 14 -35 -186 -171 -81 -110 -69
-65 -41 25 67 -67 -1 -35 -181 -166 -86 -115 -74
-65 -12 54 52 -45 -8 -50 -188 -181 -81 -105 -64
-80 -12 69 38 -59 20 -55 -203 -190 -91 -115 -73
-56 3 60 45 -74 28 -55 -193 -181 -101 -130 -87
-70 36 105 26 -58 31 -40 -178 -156 -101 -125 -92
-80 27 106 16 -88 71 -25 -164 -146 -81 -115 -87
-80 3 82 26 -94 67 -45 -178 -166 -71 -115 -78
-90 6 96 38 -82 43 -50 -188 -171 -91 -135 -102
-104 -22 82 41 -94 52 -45 -188 -171 -101 -144 -105
-109 -22 87 62 -94 31 -55 -198 -181 -96 -135 -100
-100 -42 58 64 -99 33 -55 -194 -181 -106 -140 -105
-119 -61 58 70 -80 9 -50 -184 -171 -101 -135 -100
-109 -37 72 89 -89 0 -35 -170 -156 -91 -120 -90
-109 6 115 74 -90 18 -20 -150 -141 -71 -105 -71
-75 30 105 52 -112 61 -17 -150 -137 -57 -86 -55
-36 21 57 23 -90 68 -41 -174 -161 -52 -81 -50
-57 11 67 8 -46 40 -60 -194 -181 -76 -110 -80
-91 11 101 23 -61 40 -65 -194 -181 -96 -130 -99
-71 26 96 40 -95 57 -60 -189 -176 -101 -135 -99
-96 2 97 23 -83 61 -65 -194 -181 -95 -125 -94
-66 -8 57 47 -96 49 -60 -191 -181 -100 -130 -99
-81 11 91 37 -61 24 -46 -181 -171 -100 -135 -102
-91 21 111 35 -85 51 -51 -186 -177 -90 -120 -92
-105 -22 82 35 -100 66 -51 -186 -177 -100 -125 -102
-96 -8 87 64 -93 30 -51 -186 -177 -100 -130 -102
-57 -8 48 52 -91 39 -36 -172 -157 -95 -130 -102
-61 6 66 33 -52 20 -51 -186 -172 -80 -115 -82
-91 2 92 28 -63 36 -51 -186 -177 -95 -130 -101
-96 -22 73 45 -91 46 -51 -176 -167 -95 -130 -101
-110 -23 87 59 -84 24 -51 -177 -172 -90 -125 -96
-125 20 145 66 -98 31 -26 -163 -157 -90 -125 -101
-110 -28 82 52 -134 82 -12 -143 -142 -75 -110 -81
-76 -23 53 69 -95 26 -26 -163 -162 -61 -91 -67
-52 -9 43 49 -64 14 -17 -148 -152 -80 -110 -84
-52 -14 37 30 -47 16 -7 -138 -142 -75 -110 -84
-52 -23 28 33 -44 11 -17 -148 -147 -65 -101 -75
-52 -9 42 37 -40 3 -26 -163 -167 -75 -115 -79
-71 -4 66 30 -47 16 -36 -173 -172 -90 -130 -99
-115 -28 86 37 -68 31 -26 -163 -167 -100 -140 -109
-140 -33 106 71 -100 29 -21 -165 -167 -95 -135 -104
-120 -33 86 86 -123 36 -12 -150 -152 -90 -125 -103
-91 -9 81 76 -103 26 2 -140 -147 -80 -110 -93
-86 -14 71 50 -86 36 2 -145 -152 -70 -105 -83
-91 -15 76 50 -78 28 -7 -155 -162 -75 -110 -88
-110 -34 76 52 -83 31 -2 -155 -157 -85 -120 -93
-110 -34 76 71 -93 20 -2 -155 -162 -80 -115 -88
-105 -24 81 71 -93 20 -12 -170 -167 -85 -120 -91
-91 -34 57 64 -93 28 -2 -160 -158 -95 -125 -101
-76 -29 47 63 -73 11 -12 -166 -168 -80 -115 -91
-76 38 114 53 -60 8 -18 -176 -173 -90 -120 -101
-76 -1 76 19 -94 75 -22 -180 -183 -100 -135 -106
-76 -45 32 38 -75 37 -32 -190 -192 -105 -135 -111
-96 -25 72 60 -53 -6 -13 -176 -173 -109 -140 -119
-61 23 85 60 -83 23 -3 -166 -168 -95 -125 -105
-76 -1 76 19 -72 54 -3 -161 -163 -90 -120 -100
-105 -35 71 38 -75 37 -3 -166 -163 -85 -125 -100
-101 -35 67 70 -87 18 -3 -171 -163 -84 -125 -100
-91 -11 81 68 -83 16 -13 -173 -168 -89 -125 -100
-81 -11 71 51 -85 35 -27 -182 -173 -94 -130 -103
-91 -35 57 46 -75 30 -18 -178 -173 -89 -125 -103
-96 -16 81 63 -73 11 -8 -168 -164 -84 -120 -98
-96 -1 96 56 -87 32 -3 -158 -159 -74 -105 -88
-96 -16 81 48 -95 47 -13 -163 -164 -69 -101 -78
-86 -6 81 56 -87 32 -3 -168 -164 -74 -101 -83
-91 -1 91 46 -82 37 1 -158 -154 -74 -105 -83
-76 -25 50 46 -90 45 -13 -173 -164 -69 -105 -77
-76 -35 40 50 -63 13 -32 -187 -184 -79 -115 -92
-91 -35 55 55 -58 3 -13 -174 -169 -99 -135 -107
-105 -25 79 63 -73 11 -3 -164 -159 -83 -120 -92
-115 -20 94 65 -92 28 -18 -169 -154 -78 -110 -87
-110 3 112 67 -104 37 -13 -169 -159 -73 -105 -92
-144 3 146 53 -111 57 -22 -183 -179 -68 -110 -95
-164 12 176 70 -145 74 -22 -193 -188 -88 -130 -114
-125 36 161 75 -170 94 1 -183 -179 -98 -144 -129
-76 36 112 44 -143 99 21 -169 -154 -103 -154 -144
-203 -7 196 19 -94 74 25 -159 -135 -88 -144 -149
-232 -21 211 104 -199 95 30 -156 -120 -68 -135 -144
-218 2 220 126 -221 95 64 -132 -96 -59 -125 -143
-198 7 205 107 -219 110 69 -146 -105 -10 -71 -94
-159 -31 128 95 -201 105 50 -151 -105 14 -37 -65
-120 -41 79 94 -143 48 64 -117 -66 53 6 -35
-115 -46 69 80 -99 18 79 -44 21 106 50 -11
-66 -7 59 80 -92 11 99 28 138 185 113 32
-3 36 39 38 -62 25 128 131 284 316 230 122
69 65 -4 -15 -21 37 143 229 445 478 357 215
162 100 -62 -65 36 30 128 297 592 668 519 332
250 99 -150 -129 112 18 84 335 694 883 738 532
333 60 -272 -173 200 -25 60 403 802 1059 919 708
406 79 -326 -195 302 -106 35 482 924 1195 1051 835
469 74 -395 -241 366 -123 1 545 1022 1337 1178 967
503 74 -429 -271 432 -160 -37 584 1061 1400 1222 1031
508 69 -439 -288 466 -177 -61 604 1026 1352 1158 1017
488 45 -443 -288 474 -185 -91 550 924 1182 991 924
435 -57 -492 -266 466 -199 -115 433 719 972 776 787
347 -170 -516 -188 464 -274 -144 228 392 698 513 597
313 -292 -605 -88 432 -343 -154 -22 -18 327 181 352
278 -355 -633 -10 459 -448 -140 -242 -398 -126 -224 32
273 -390 -663 38 455 -494 -81 -262 -496 -570 -644 -328
244 -395 -639 58 468 -526 -37 -223 -472 -756 -834 -528
225 -424 -649 75 441 -517 -22 -227 -492 -766 -883 -616
200 -492 -692 99 437 -536 -32 -286 -565 -800 -941 -699
171 -487 -658 146 446 -592 -22 -315 -590 -888 -1034 -816
103 -473 -576 158 414 -572 -4 -330 -604 -902 -1059 -869
44 -482 -526 185 339 -524 0 -364 -629 -897 -1054 -884
-28 -473 -445 219 285 -504 24 -360 -609 -902 -1059 -908
-72 -458 -386 250 208 -459 44 -360 -600 -883 -1049 -908
-67 -434 -367 265 157 -422 78 -336 -551 -863 -1039 -913
-141 -424 -283 250 150 -400 112 -277 -478 -814 -990 -889
-160 -399 -239 282 71 -353 142 -224 -404 -746 -922 -839
-126 -355 -229 279 39 -319 181 -170 -346 -683 -868 -799
-189 -326 -137 240 51 -292 205 -131 -302 -639 -819 -755
-209 -287 -78 257 -26 -231 239 -77 -243 -600 -775 -730
-268 -268 0 248 -65 -182 308 5 -155 -556 -731 -696
-336 -224 112 268 -134 -134 356 63 -102 -482 -658 -623
-316 -209 107 280 -224 -56 405 125 -28 -434 -604 -579
-282 -229 54 262 -211 -51 435 154 10 -360 -531 -515
-238 -205 34 255 -168 -87 444 169 29 -316 -487 -480
-243 -195 49 221 -136 -85 469 208 63 -297 -468 -466
-248 -200 49 219 -146 -72 488 232 88 -253 -424 -432
-258 -181 78 224 -148 -75 521 276 137 -228 -404 -412
-297 -190 108 220 -168 -51 546 291 142 -194 -370 -393
-263 -190 74 244 -202 -41 575 311 151 -185 -351 -371
-258 -181 78 227 -168 -58 624 345 171 -185 -351 -371
-204 -186 19 220 -168 -52 624 319 132 -170 -336 -361
-92 -225 -132 195 -111 -84 634 300 98 -204 -360 -381
-258 -269 -10 159 20 -179 619 256 23 -224 -370 -381
-277 -273 3 264 -124 -140 570 178 -44 -272 -409 -410
-287 -259 27 275 -141 -134 639 222 4 -312 -434 -429
-307 -259 47 273 -158 -115 644 202 -24 -238 -346 -346
-312 -284 28 283 -178 -106 619 168 -49 -247 -346 -341
-248 -260 -12 298 -171 -128 600 139 -73 -252 -351 -341
-214 -201 13 254 -119 -136 585 119 -73 -252 -341 -331
-194 -191 3 207 -114 -94 531 75 -98 -237 -316 -307
-233 -235 -2 192 -99 -94 458 15 -146 -237 -316 -307
-199 -177 22 234 -116 -118 434 0 -146 -262 -336 -314
-165 -128 37 188 -111 -77 434 10 -122 -247 -316 -295
-131 -133 -2 146 -102 -45 380 -28 -156 -203 -272 -251
-175 -100 76 132 -65 -67 316 -67 -176 -208 -272 -251
-200 -124 76 137 -126 -11 287 -67 -167 -208 -268 -241
-171 -105 66 161 -138 -23 277 -67 -147 -184 -233 -217
-112 -105 7 137 -119 -19 272 -63 -138 -144 -194 -181
-122 -85 37 107 -60 -48 219 -82 -147 -119 -171 -157
-93 -51 42 102 -80 -23 165 -108 -167 -124 -176 -162
-98 -46 52 71 -68 -4 155 -108 -152 -129 -181 -172
-93 -61 32 71 -75 3 121 -108 -143 -109 -156 -147
-107 -51 56 76 -63 -14 92 -103 -133 -90 -137 -128
-93 -12 81 78 -82 2 62 -108 -128 -70 -117 -106
-83 -31 52 51 -87 34 48 -108 -123 -56 -103 -92
-68 -31 37 56 -68 10 33 -112 -128 -51 -98 -82
-44 -7 37 48 -53 2 23 -112 -123 -51 -93 -77
-49 -7 42 24 -41 14 -5 -137 -147 -41 -83 -67
-49 -36 13 27 -46 17 -29 -149 -157 -56 -93 -82
-49 -17 32 41 -31 -12 -34 -158 -157 -60 -103 -86
-78 -3 75 34 -40 7 -34 -158 -147 -60 -98 -81
-156 -26 130 41 -76 35 -40 -158 -143 -56 -88 -71
-112 -7 105 92 -142 51 -30 -149 -133 -51 -83 -66
-49 21 69 60 -108 48 -16 -129 -113 -36 -73 -51
-39 17 55 15 -59 45 -21 -134 -118 -17 -54 -32
-54 6 60 12 -47 36 -25 -139 -123 -17 -54 -32
-59 -4 55 24 -57 33 -30 -149 -128 -21 -59 -35
-73 1 74 32 -57 26 -45 -153 -133 -26 -59 -35
-54 6 60 36 -73 38 -64 -164 -147 -31 -59 -45
-34 16 50 24 -57 33 -64 -164 -143 -36 -63 -49
-16 40 55 9 -42 33 -60 -159 -133 -31 -63 -45
-25 30 54 -12 -35 48 -64 -159 -133 -26 -54 -40
-35 1 35 -2 -39 42 -74 -164 -138 -21 -54 -34
-25 -18 6 17 -34 18 -69 -159 -128 -20 -54 -34
-21 -8 12 21 -15 -5 -94 -174 -147 -11 -44 -24
-30 -8 21 14 -16 2 -94 -179 -152 -30 -63 -39
-30 -4 25 19 -25 7 -89 -169 -147 -35 -68 -48
-25 1 25 17 -27 11 -84 -166 -138 -25 -59 -39
-25 16 40 12 -24 12 -84 -166 -138 -20 -44 -32
-25 16 40 4 -32 27 -89 -171 -143 -20 -44 -32
-25 15 40 4 -32 27 -89 -171 -143 -20 -49 -32
-30 15 45 4 -32 27 -94 -171 -138 -16 -44 -27
-16 39 55 7 -37 30 -99 -171 -143 -11 -44 -17
-11 39 50 -12 -35 47 -108 -181 -153 -16 -49 -22
-2 19 21 -14 -30 44 -128 -181 -148 -20 -49 -26
-25 15 40 -9 -11 20 -133 -186 -144 -20 -49 -21
-40 10 50 4 -32 27 -133 -186 -144 -20 -49 -26
-21 18 40 14 -44 29 -128 -182 -144 -20 -49 -26
-16 18 35 1 -30 28 -133 -177 -144 -11 -34 -21
-2 18 21 -2 -25 26 -123 -177 -139 -6 -24 -11
3 23 21 -9 -11 19 -133 -177 -139 -1 -20 -6
-16 38 55 -14 -8 21 -138 -177 -134 -1 -24 -4
-21 28 50 -12 -35 46 -133 -182 -139 3 -20 0
-21 23 45 -4 -35 38 -123 -167 -134 -1 -24 -4
-25 33 57 -2 -32 33 -123 -162 -124 8 -10 15
-35 43 77 -4 -41 45 -128 -157 -119 18 -1 29
8 14 5 -4 -56 60 -123 -159 -119 27 14 39
47 28 -20 -11 1 10 -123 -155 -119 32 23 49
57 82 24 -37 33 4 -138 -164 -124 37 23 49
66 77 10 -69 16 53 -147 -169 -129 32 19 44
76 33 -44 -71 27 44 -162 -179 -139 27 14 40
57 18 -40 -54 59 -5 -167 -179 -134 18 4 35
42 38 -5 -37 48 -10 -157 -174 -124 23 14 54
66 77 10 -40 23 16 -147 -164 -119 32 19 61
76 33 -44 -71 27 43 -157 -164 -124 37 23 66
105 9 -97 -54 59 -6 -177 -185 -139 32 23 61
130 33 -98 -57 100 -44 -172 -175 -129 18 9 46
76 77 0 -81 113 -33 -182 -175 -129 32 28 61
61 76 15 -76 37 38 -172 -170 -124 37 33 61
125 96 -29 -69 22 45 -147 -146 -101 48 38 56
86 56 -30 -111 76 33 -167 -156 -110 67 58 72
42 61 19 -71 57 13 -196 -185 -140 67 53 67
169 81 -88 -52 11 40 -167 -156 -106 33 23 52
198 66 -132 -125 128 -4 -148 -141 -96 67 58 96
37 61 24 -132 164 -33 -231 -209 -164 87 82 121
101 42 -59 -49 6 42 -246 -211 -154 28 28 62
140 52 -88 -72 79 -8 -168 -148 -91 38 43 88
66 81 15 -96 113 -18 -197 -172 -120 111 126 171
125 96 -29 -74 25 48 -207 -182 -120 92 111 152
105 100 -5 -111 76 33 -197 -167 -101 92 111 157
169 105 -64 -103 54 47 -217 -182 -110 116 136 181
164 110 -54 -137 116 20 -212 -162 -91 112 131 176
130 115 -15 -137 108 28 -241 -192 -121 142 155 212
115 65 -49 -123 72 50 -246 -197 -121 117 136 187
135 114 -20 -91 81 8 -241 -178 -97 112 131 177
154 129 -25 -125 77 47 -227 -173 -87 137 155 197
179 124 -55 -142 88 53 -261 -198 -116 151 170 216
198 99 -99 -152 116 35 -266 -207 -121 132 160 202
223 143 -80 -149 147 1 -266 -203 -111 132 165 214
193 163 -30 -184 150 31 -261 -193 -102 147 185 238
164 133 -30 -177 111 66 -280 -217 -121 166 204 262
188 181 -6 -148 97 52 -291 -212 -111 147 194 253
193 191 -1 -184 97 88 -286 -212 -111 166 214 272
208 181 -26 -191 97 95 -311 -227 -126 171 214 277
218 147 -70 -194 117 78 -311 -229 -126 161 204 267
213 118 -94 -182 144 39 -301 -229 -126 156 209 268
188 123 -64 -165 153 12 -301 -224 -121 161 209 273
193 123 -69 -155 126 29 -311 -224 -121 166 214 273
262 128 -133 -157 131 26 -296 -214 -116 171 224 278
271 147 -123 -194 197 -3 -301 -219 -121 181 233 293
252 128 -123 -208 197 11 -325 -239 -136 176 228 288
242 89 -152 -189 187 2 -340 -244 -136 161 214 275
252 123 -128 -165 197 -32 -325 -229 -121 161 214 280
285 152 -133 -187 190 -3 -301 -210 -97 171 228 295
261 118 -143 -218 209 9 -316 -220 -111 195 253 319
231 128 -103 -189 202 -13 -340 -245 -136 186 238 304
241 167 -74 -179 167 12 -330 -235 -131 162 213 280
212 172 -40 -204 158 46 -325 -230 -126 162 223 281
197 142 -55 -192 126 65 -335 -235 -136 162 223 281
187 133 -54 -169 126 43 -320 -225 -126 152 208 271
178 133 -45 -160 121 39 -306 -210 -107 162 213 271
153 128 -25 -155 112 43 -306 -206 -102 172 223 281
168 122 -45 -140 89 51 -301 -212 -111 177 223 286
197 117 -79 -145 107 38 -306 -217 -116 167 208 273
192 136 -55 -157 138 18 -316 -222 -121 157 198 263
168 141 -28 -164 124 39 -316 -227 -121 148 184 249
178 141 -38 -155 97 56 -306 -222 -126 138 179 239
178 117 -62 -160 107 51 -291 -212 -126 133 174 229
163 93 -71 -148 119 27 -291 -212 -126 123 159 220
148 107 -42 -128 116 11 -281 -203 -121 113 149 205
139 107 -33 -128 94 32 -262 -188 -103 123 149 206
114 88 -27 -123 85 37 -257 -178 -93 128 159 206
104 102 -3 -101 70 30 -242 -179 -93 133 154 206
70 88 17 -103 53 49 -228 -165 -78 123 140 191
46 102 55 -79 26 52 -218 -160 -73 133 144 191
60 112 51 -73 -4 78 -218 -160 -83 128 135 181
80 106 26 -85 5 81 -194 -145 -68 118 125 169
109 106 -3 -93 27 66 -194 -140 -68 128 130 164
90 96 6 -107 56 52 -194 -140 -64 118 120 144
70 87 17 -93 42 51 -194 -135 -59 109 105 125
75 96 21 -78 27 52 -194 -130 -54 104 91 115
51 72 21 -85 27 59 -170 -118 -44 99 81 105
41 92 51 -61 15 47 -155 -108 -39 104 81 106
51 100 50 -66 -4 72 -141 -103 -34 99 71 97
21 32 12 -76 1 76 -136 -98 -29 94 61 82
12 37 26 -27 5 23 -150 -103 -39 89 52 72
12 37 26 -25 -6 32 -136 -98 -34 69 32 53
-3 32 36 -25 -6 32 -126 -93 -34 69 27 38
-3 37 41 -15 -19 35 -107 -84 -34 65 27 30
12 56 45 -17 -21 39 -107 -84 -39 60 18 17
12 42 31 -34 -16 50 -102 -79 -34 50 8 2
36 56 21 -27 -9 36 -77 -65 -20 50 -2 -3
7 51 45 -46 8 38 -63 -60 -20 55 -2 -3
-12 37 50 -29 -18 48 -58 -55 -15 51 -11 -13
-26 22 49 -13 -30 43 -53 -55 -20 51 -11 -13
-70 -16 55 2 -37 35 -53 -60 -25 41 -21 -21
-70 -12 58 42 -62 19 -53 -65 -40 31 -30 -31
-56 -12 44 40 -64 23 -43 -70 -50 12 -50 -51
-26 12 38 33 -50 15 -33 -70 -50 3 -55 -61
-7 8 15 7 -32 24 -38 -75 -60 3 -60 -61
-22 -2 20 -1 -11 11 -43 -82 -60 -7 -69 -75
-51 -2 49 11 -21 8 -19 -62 -50 -16 -74 -73
-66 8 73 26 -50 23 -19 -67 -55 -7 -64 -63
-66 -21 44 28 -69 40 -14 -72 -60 -16 -79 -68
-57 -35 21 42 -54 11 -33 -82 -79 -26 -84 -78
-42 -32 10 45 -38 -8 -19 -77 -74 -45 -99 -88
-37 -17 20 35 -25 -11 -19 -82 -84 -45 -99 -93
-37 -17 20 25 -28 1 -28 -82 -84 -54 -108 -106
-52 -36 16 25 -28 1 -19 -82 -84 -54 -108 -111
-62 -17 45 42 -33 -10 -24 -88 -95 -54 -113 -116
-57 -3 54 40 -53 14 -19 -83 -85 -59 -123 -126
-42 11 53 30 -55 25 -14 -83 -85 -54 -118 -116
-52 2 54 16 -47 32 -28 -102 -95 -50 -118 -116
-71 -36 35 25 -52 28 -33 -107 -100 -59 -128 -131
-57 -41 16 54 -52 -1 -9 -97 -90 -69 -128 -129
-96 -41 55 49 -36 -13 -19 -112 -105 -59 -118 -119
-96 -46 50 69 -75 6 -38 -132 -124 -69 -133 -134
-62 -17 45 71 -72 1 -5 -92 -90 -84 -143 -143
-57 -8 49 40 -53 13 10 -83 -75 -50 -104 -104
-76 -14 63 33 -52 19 -9 -99 -95 -30 -89 -85
-71 6 78 45 -69 24 -19 -104 -95 -50 -104 -94
-52 10 63 32 -74 41 -9 -94 -80 -54 -104 -94
6 20 15 21 -57 36 -19 -109 -95 -40 -94 -84
-52 1 54 -13 -4 17 -28 -114 -100 -50 -104 -98
-32 1 34 25 -52 27 -24 -119 -105 -54 -108 -108
20 10 -9 15 -32 17 5 -104 -90 -54 -108 -108
-53 -5 47 -15 15 0 -14 -119 -114 -45 -94 -92
-53 -38 14 28 -50 22 -43 -138 -129 -64 -118 -116
-92 -19 72 44 -33 -11 -25 -115 -105 -79 -133 -131
-150 -5 144 54 -82 27 -10 -105 -95 -53 -108 -116
29 5 -25 76 -147 70 14 -76 -70 -49 -108 -111
176 5 -172 -18 27 -9 38 -56 -41 -29 -84 -87
-53 0 52 -91 174 -82 -25 -120 -110 -5 -64 -61
-111 0 110 25 -52 27 -98 -178 -163 -58 -123 -115
-146 5 150 54 -110 56 -20 -105 -85 -112 -167 -154
-107 9 115 69 -148 78 -1 -86 -70 -34 -84 -81
-48 -5 42 48 -111 63 14 -66 -51 -14 -60 -56
-48 -19 28 25 -45 19 -6 -86 -66 5 -40 -37
-28 9 36 32 -38 5 -20 -97 -75 -5 -50 -52
0 24 23 9 -32 23 -20 -102 -80 -19 -64 -64
-24 19 42 -13 -11 23 -29 -107 -85 -19 -69 -69
-38 24 61 2 -33 30 -44 -122 -100 -24 -74 -74
-38 19 56 6 -49 42 -34 -117 -95 -39 -94 -84
-53 5 57 9 -47 37 -25 -102 -80 -34 -84 -74
-19 19 37 23 -55 31 -34 -107 -85 -24 -69 -54
-5 34 38 0 -28 28 -25 -97 -70 -19 -64 -53
-14 44 57 -14 -21 36 -21 -102 -75 -5 -45 -34
-43 34 76 -15 -35 50 -35 -108 -85 -5 -40 -29
-28 33 61 5 -59 54 -35 -103 -76 -10 -45 -34
-58 47 105 -3 -44 46 -35 -98 -71 -5 -40 -29
-48 43 91 5 -81 75 -30 -98 -71 0 -40 -24
-38 33 71 2 -69 66 -30 -98 -67 5 -35 -17
-48 43 91 2 -54 51 -30 -98 -71 14 -30 -12
-67 28 95 2 -69 66 -30 -98 -67 9 -30 -22
-67 13 80 19 -81 61 -35 -94 -62 9 -30 -22
-58 47 105 26 -73 46 -30 -84 -47 14 -30 -22
-19 52 71 5 -81 75 -40 -96 -57 19 -21 -12
10 72 61 -17 -45 61 -50 -105 -71 9 -25 -21
19 87 67 -41 -26 66 -65 -120 -86 5 -30 -31
0 101 100 -53 -24 77 -69 -135 -101 -10 -45 -41
-9 82 90 -51 -50 100 -74 -144 -111 -24 -60 -46
-9 8 16 -37 -50 86 -84 -154 -115 -29 -60 -46
-5 17 22 0 -13 12 -84 -149 -111 -29 -64 -46
-5 27 32 -7 -14 20 -60 -120 -86 -24 -60 -41
-9 7 16 -12 -19 30 -55 -125 -91 0 -35 -19
-38 -12 26 0 -13 11 -74 -144 -111 -10 -40 -29
-48 3 51 24 -32 6 -60 -136 -106 -23 -60 -44
-77 22 99 21 -50 26 -40 -121 -96 -18 -45 -34
-82 56 138 26 -88 60 -40 -116 -91 -4 -35 -24
-53 41 95 12 -110 96 -35 -116 -91 -4 -35 -24
-48 -3 46 5 -74 68 -35 -116 -91 -4 -30 -23
-19 -3 17 24 -47 21 -35 -116 -86 -4 -35 -23
-5 2 8 10 -18 7 -30 -111 -86 -4 -30 -18
-28 75 104 0 -7 5 -55 -136 -107 -4 -30 -18
-58 80 139 -25 -66 89 -65 -141 -121 -23 -55 -33
-53 41 95 -12 -99 109 -74 -152 -136 -33 -64 -52
-24 -22 3 5 -74 68 -65 -147 -131 -52 -84 -70
-33 -3 31 21 -14 -10 -55 -138 -126 -48 -79 -70
-24 26 51 16 -32 14 -40 -123 -107 -37 -64 -55
-28 65 94 -2 -38 38 -35 -118 -102 -22 -50 -41
-24 26 51 -18 -60 79 -35 -123 -107 -17 -50 -36
-28 16 45 0 -37 38 -46 -138 -121 -22 -50 -41
-38 41 80 7 -36 30 -36 -128 -112 -37 -74 -55
-67 26 94 -1 -58 60 -31 -133 -112 -32 -64 -49
-58 -61 -2 21 -80 60 -56 -147 -126 -32 -69 -49
-48 2 51 60 -27 -31 -46 -134 -116 -47 -79 -64
-48 50 99 23 -49 26 -27 -119 -103 -37 -69 -54
-43 31 73 0 -73 74 -46 -148 -137 -22 -55 -40
-58 21 78 7 -58 53 -56 -158 -147 -56 -84 -74
-63 6 68 19 -68 50 -31 -134 -122 -66 -104 -86
-48 -8 39 29 -66 37 -27 -124 -113 -47 -79 -67
-53 5 58 28 -44 15 -17 -124 -108 -37 -79 -62
-48 25 73 24 -56 32 -22 -124 -113 -32 -69 -52
-53 20 73 12 -61 49 -27 -129 -113 -32 -69 -52
-72 10 82 16 -63 47 -22 -131 -117 -32 -69 -52
-87 1 88 31 -77 46 -22 -136 -117 -37 -74 -56
-97 15 112 43 -88 45 -12 -131 -117 -42 -74 -61
-82 5 87 41 -105 64 -12 -131 -122 -37 -69 -61
-58 1 59 38 -85 46 -12 -126 -113 -42 -74 -61
-28 15 43 28 -59 29 -17 -131 -117 -42 -74 -56
-34 15 48 7 -36 28 -27 -146 -127 -42 -79 -66
-49 -4 44 9 -41 31 -31 -146 -132 -56 -89 -64
-44 -4 39 26 -46 19 -36 -155 -137 -61 -99 -69
-49 20 68 23 -41 17 -36 -151 -132 -70 -105 -74
-59 25 83 14 -58 43 -22 -142 -127 -65 -100 -74
-73 0 73 16 -71 53 -22 -142 -132 -55 -95 -74
-54 0 54 35 -73 36 -27 -151 -137 -60 -100 -78
-44 0 44 26 -54 27 -31 -151 -142 -70 -100 -88
-34 9 43 21 -44 22 -36 -156 -147 -70 -100 -82
-44 24 68 12 -38 26 -31 -156 -147 -70 -100 -82
-64 -10 54 9 -56 46 -31 -151 -142 -65 -100 -77
-49 0 49 36 -59 22 -22 -147 -132 -60 -90 -68
-59 14 73 23 -49 24 -22 -147 -142 -55 -85 -58
-64 18 83 21 -66 43 -31 -149 -142 -65 -95 -73
-59 8 68 21 -73 51 -31 -149 -142 -65 -100 -71
-49 -11 39 25 -63 38 -17 -139 -137 -70 -105 -75
-49 -21 29 29 -44 13 -22 -139 -137 -60 -95 -71
-64 -25 40 34 -39 3 -12 -139 -127 -60 -90 -71
-59 -16 43 44 -52 7 -27 -153 -142 -55 -85 -71
-44 13 57 37 -51 13 -27 -153 -142 -60 -95 -80
-44 28 72 15 -51 35 -17 -144 -132 -60 -90 -79
-68 33 101 8 -58 50 -17 -144 -137 -55 -90 -70
-73 23 96 17 -85 67 -12 -140 -132 -55 -100 -74
-44 -11 33 24 -85 59 -8 -135 -122 -60 -100 -74
-64 -1 63 27 -39 11 -12 -140 -127 -55 -95 -70
-98 -21 77 32 -64 31 -27 -154 -148 -65 -100 -74
-73 23 96 59 -88 28 -17 -145 -138 -80 -114 -87
-117 18 135 24 -85 59 -8 -130 -128 -70 -100 -77
-127 -1 126 49 -126 76 -12 -145 -143 -60 -90 -68
23 18 -5 63 -127 62 2 -130 -123 -70 -100 -77
48 13 -35 -21 13 6 -3 -130 -123 -50 -85 -58
-103 18 121 -31 41 -11 -56 -179 -172 -46 -80 -53
-64 8 72 42 -112 69 -61 -186 -162 -94 -129 -97
106 3 -103 27 -68 40 -9 -127 -109 -99 -129 -91
-54 -2 53 -55 104 -50 -23 -156 -143 -46 -70 -32
-34 12 47 27 -54 26 -71 -200 -192 -70 -100 -62
-29 12 42 10 -41 30 -9 -137 -128 -119 -148 -111
-73 -12 62 8 -36 27 -18 -152 -148 -60 -85 -62
-117 -26 92 41 -68 25 -32 -156 -148 -80 -109 -86
-117 -2 116 70 -105 33 -32 -147 -138 -84 -114 -84
-59 12 72 58 -117 57 -13 -132 -123 -69 -100 -65
-59 2 62 22 -66 41 -13 -133 -123 -54 -85 -45
-44 7 52 27 -61 31 -32 -153 -143 -54 -85 -45
-44 17 62 17 -48 29 -32 -157 -148 -74 -105 -65
-64 12 77 13 -53 39 -52 -167 -157 -74 -109 -69
-49 22 72 25 -71 44 -47 -167 -157 -84 -119 -83
-49 12 62 13 -61 46 -32 -153 -148 -89 -119 -83
-49 -7 43 17 -56 36 -23 -148 -143 -79 -105 -78
-39 22 61 27 -46 17 -32 -157 -153 -69 -100 -78
-40 21 61 9 -51 41 -37 -167 -157 -84 -119 -88
-45 21 65 9 -50 40 -23 -154 -148 -93 -124 -98
-79 7 85 13 -55 43 -24 -154 -149 -74 -109 -77
-89 -8 80 37 -82 46 -19 -150 -139 -73 -110 -77
-74 -3 70 49 -84 36 4 -140 -135 -68 -101 -66
-64 7 70 39 -72 33 -10 -150 -144 -59 -96 -61
-89 -22 66 29 -67 38 -15 -155 -144 -68 -105 -71
-89 -27 61 56 -77 22 -19 -150 -144 -73 -105 -71
-89 -32 56 59 -75 17 -24 -155 -154 -68 -105 -71
-84 -22 61 61 -72 12 -10 -150 -149 -73 -105 -71
-99 -12 86 54 -72 19 0 -145 -144 -73 -101 -70
-89 -27 61 56 -92 37 -5 -145 -144 -64 -96 -65
-89 -42 46 59 -75 17 -10 -146 -144 -64 -101 -65
-99 -27 71 66 -67 2 -10 -141 -135 -64 -96 -65
-79 2 80 64 -85 22 0 -141 -135 -59 -96 -60
-74 1 75 39 -79 41 0 -146 -144 -64 -101 -65
-94 -13 81 37 -74 38 -19 -165 -164 -73 -110 -73
-84 6 90 54 -87 34 -15 -165 -159 -93 -130 -93
-64 -13 51 39 -87 48 -29 -170 -169 -93 -125 -93
-84 -43 41 39 -57 19 -15 -161 -159 -98 -135 -102
-99 -38 61 64 -62 0 -10 -156 -159 -93 -120 -93
-79 10 89 69 -80 12 0 -153 -149 -88 -115 -88
-64 0 65 35 -84 50 14 -138 -139 -78 -115 -82
-55 0 56 32 -64 33 -15 -167 -159 -68 -105 -72
-74 0 75 27 -55 29 -15 -158 -154 -93 -125 -87
-40 -10 31 37 -74 38 -5 -153 -149 -83 -115 -77
-35 -19 17 25 -35 11 0 -153 -144 -73 -101 -62
-133 -24 110 27 -26 -1 -10 -158 -159 -68 -101 -57
-123 -19 105 78 -121 43 -19 -163 -165 -78 -110 -72
-103 -14 90 71 -114 43 19 -128 -131 -88 -115 -80
-147 -5 143 58 -96 38 19 -133 -136 -59 -86 -51
-74 -19 55 76 -145 69 9 -144 -140 -68 -96 -60
-16 -19 -3 46 -65 18 19 -129 -131 -73 -110 -75
-103 0 103 17 -7 -10 -5 -164 -155 -68 -101 -70
27 -10 -37 51 -103 52 -29 -188 -180 -93 -135 -104
101 0 -101 -8 31 -24 0 -159 -155 -112 -154 -123
-108 0 108 -49 100 -51 -44 -203 -204 -88 -125 -89
-172 14 186 55 -108 53 -68 -227 -223 -132 -169 -128
-99 -14 85 80 -179 99 4 -149 -145 -156 -193 -147
-69 -44 25 57 -92 35 28 -124 -121 -83 -105 -69
-128 -34 94 57 -47 -10 9 -141 -136 -53 -81 -50
-103 -29 74 82 -111 29 -5 -151 -151 -72 -96 -62
-69 -19 50 67 -89 22 9 -136 -132 -82 -110 -67
-113 -19 94 45 -60 15 0 -146 -132 -63 -91 -52
-113 -11 103 67 -104 37 -24 -166 -156 -63 -101 -57
-133 -25 109 62 -108 46 -5 -146 -137 -82 -120 -77
-152 -25 128 79 -121 42 -10 -161 -146 -63 -101 -62
-113 -11 103 89 -140 51 -10 -161 -146 -72 -110 -76
-84 -20 65 62 -108 46 -10 -161 -151 -77 -115 -81
-90 -20 70 52 -75 22 -24 -166 -161 -82 -115 -86
-100 -6 94 55 -80 25 -29 -171 -161 -87 -115 -90
-80 23 103 53 -97 44 -34 -181 -171 -87 -115 -90
-104 8 112 28 -91 62 -34 -176 -166 -91 -125 -95
-124 -30 94 48 -108 59 -39 -181 -166 -86 -115 -90
-109 8 117 77 -109 31 -44 -171 -156 -81 -115 -84
-60 -6 54 50 -113 61 -16 -157 -141 -71 -105 -69
-80 -25 55 33 -57 23 -35 -181 -166 -62 -91 -49
-90 -45 45 52 -67 14 -35 -186 -171 -81 -110 -69
-65 -41 25 67 -67 -1 -35 -181 -166 -86 -115 -74
-65 -12 54 52 -45 -8 -50 -188 -181 -81 -105 -64
-80 -12 69 38 -59 20 -55 -203 -190 -91 -115 -73
-56 3 60 45 -74 28 -55 -193 -181 -101 -130 -87
-70 36 105 26 -58 31 -40 -178 -156 -101 -125 -92
-80 27 106 16 -88 71 -25 -164 -146 -81 -115 -87
-80 3 82 26 -94 67 -45 -178 -166 -71 -115 -78
-90 6 96 38 -82 43 -50 -188 -171 -91 -135 -102
-104 -22 82 41 -94 52 -45 -188 -171 -101 -144 -105
-109 -22 87 62 -94 31 -55 -198 -181 -96 -135 -100
-100 -42 58 64 -99 33 -55 -194 -181 -106 -140 -105
-119 -61 58 70 -80 9 -50 -184 -171 -101 -135 -100
-109 -37 72 89 -89 0 -35 -170 -156 -91 -120 -90
-109 6 115 74 -90 18 -20 -150 -141 -71 -105 -71
-75 30 105 52 -112 61 -17 -150 -137 -57 -86 -55
-36 21 57 23 -90 68 -41 -174 -161 -52 -81 -50
-57 11 67 8 -46 40 -60 -194 -181 -76 -110 -80
-91 11 101 23 -61 40 -65 -194 -181 -96 -130 -99
-71 26 96 40 -95 57 -60 -189 -176 -101 -135 -99
-96 2 97 23 -83 61 -65 -194 -181 -95 -125 -94
-66 -8 57 47 -96 49 -60 -191 -181 -100 -130 -99
