-324 63 390 121 -347 226 -2 -269 273 767 1291 1210
-324 63 390 121 -347 226 -2 -269 273 767 1291 1210
-323 70 395 130 -357 226 683 1012 903 762 1284 1196
-321 76 398 126 -358 233 679 1007 900 489 19 -524
-321 72 395 121 -360 237 677 1010 898 488 13 -534
-319 70 392 124 -357 234 682 1012 895 488 8 -531
-311 77 390 124 -356 231 694 1022 898 490 13 -527
-315 77 395 116 -350 234 699 1024 900 493 15 -514
-315 74 390 118 -355 236 699 1022 903 493 15 -512
-317 62 380 120 -352 232 699 1022 905 498 20 -517
-318 64 384 127 -349 221 696 1012 900 495 20 -517
-317 69 387 126 -351 223 686 1007 893 490 20 -522
-323 70 395 124 -352 228 689 1007 898 483 13 -529
-329 68 400 126 -358 233 684 1005 886 485 15 -527
-327 70 400 130 -364 233 686 1005 881 484 10 -531
-318 75 395 127 -363 234 699 1019 891 484 13 -519
-318 72 392 121 -356 236 699 1022 895 491 20 -512
-316 66 384 123 -355 233 694 1024 905 494 22 -509
-316 62 379 124 -350 225 703 1017 908 499 22 -505
-316 69 386 126 -347 220 694 1007 898 489 22 -517
-322 70 395 123 -351 227 701 1002 893 477 10 -529
-316 75 392 125 -358 232 694 1010 898 477 10 -534
-304 76 381 120 -353 234 694 1014 898 482 13 -527
-312 72 387 113 -342 228 701 1024 903 486 15 -524
-317 69 387 119 -350 229 693 1019 900 496 13 -514
-315 62 378 124 -352 228 695 1019 898 493 25 -519
-316 60 378 126 -346 220 698 1007 900 493 17 -519
-321 66 389 127 -346 220 690 1002 893 486 13 -524
-318 81 400 126 -355 227 685 1005 893 484 13 -531
-323 79 402 118 -360 240 681 997 895 479 13 -534
-319 83 403 121 -363 240 678 1000 883 476 8 -536
-313 88 402 118 -362 244 690 1007 888 479 5 -536
-315 81 396 112 -358 245 690 1012 891 481 15 -519
-315 77 394 116 -356 239 695 1012 898 484 13 -514
-312 71 384 118 -354 236 698 1012 905 486 17 -512
-318 63 381 120 -348 228 690 1002 903 487 20 -509
-326 62 388 127 -349 223 683 995 893 482 15 -519
-326 66 392 131 -356 225 695 1005 895 477 10 -531
-321 72 394 129 -359 229 688 1000 888 477 20 -519
-312 77 391 124 -356 234 690 1002 886 477 17 -524
-313 77 391 116 -351 234 698 1012 893 477 15 -519
-310 72 383 118 -351 236 693 1007 888 485 27 -500
-309 70 378 118 -346 228 693 1010 893 485 25 -502
-309 58 366 119 -343 226 688 1002 893 485 22 -505
-318 71 389 125 -337 214 673 995 886 477 17 -522
-316 70 385 123 -354 231 681 992 888 474 13 -539
-322 79 400 123 -350 229 681 997 888 474 8 -539
-318 85 402 121 -361 240 681 1002 888 477 10 -549
-311 85 395 116 -360 245 691 1011 891 477 5 -531
-311 79 389 113 -352 242 691 1008 886 484 15 -517
-318 70 388 115 -349 234 691 1006 891 489 17 -512
-315 69 383 124 -351 231 693 1003 895 491 15 -509
-298 87 385 123 -348 227 683 1001 893 484 17 -512
-293 97 390 104 -340 237 683 1001 893 479 15 -524
-296 102 398 97 -340 244 691 1003 895 479 15 -529
-302 98 400 97 -345 251 691 1011 893 485 18 -524
-301 96 398 102 -350 250 708 1023 900 490 21 -514
-299 97 398 103 -349 248 703 1028 910 500 31 -502
-293 96 389 101 -348 248 708 1030 913 507 36 -495
-298 102 400 98 -340 243 713 1033 922 510 40 -490
-306 103 410 98 -348 253 710 1033 925 507 45 -490
-308 113 421 102 -358 257 708 1033 920 510 43 -507
-303 119 422 97 -364 267 713 1030 920 505 38 -509
-301 118 420 92 -361 272 715 1034 922 505 36 -517
-294 132 427 92 -360 270 722 1041 922 507 36 -519
-289 141 432 81 -360 281 727 1046 930 512 38 -512
-288 137 426 74 -360 287 722 1048 930 516 36 -505
-289 125 415 75 -356 282 726 1053 944 524 43 -497
-290 124 415 82 -351 271 726 1046 942 531 50 -492
-278 131 410 83 -351 271 714 1038 939 526 48 -497
-275 142 417 74 -343 272 719 1036 937 521 48 -502
-265 144 410 66 -345 281 719 1038 937 526 48 -505
-250 157 407 60 -337 277 719 1053 942 524 50 -500
-231 169 400 47 -328 282 724 1055 947 541 58 -483
-227 175 405 31 -315 285 726 1060 947 546 70 -463
-226 171 399 26 -316 289 731 1068 959 548 79 -451
-228 166 396 27 -312 285 731 1058 964 559 87 -448
-244 155 402 31 -312 281 712 1043 954 559 89 -448
-250 155 407 44 -323 278 699 1036 944 552 77 -463
-261 158 422 48 -328 282 690 1031 939 539 75 -473
-263 153 417 52 -342 289 682 1031 934 537 70 -478
-259 147 407 55 -339 286 692 1041 942 542 70 -475
-258 141 399 57 -333 277 695 1046 944 547 75 -466
-259 135 394 59 -328 271 695 1043 944 549 82 -458
-261 126 389 63 -327 265 697 1038 944 552 79 -461
-259 124 384 68 -326 258 687 1026 939 544 79 -463
-254 124 379 68 -322 254 678 1021 934 539 72 -478
-246 124 370 65 -317 252 687 1029 939 534 60 -483
-246 129 375 62 -308 248 687 1034 937 539 79 -470
-242 123 365 59 -310 253 685 1036 939 541 72 -473
-243 110 354 60 -304 244 690 1036 942 549 77 -461
-255 101 356 66 -299 232 680 1029 930 551 79 -448
-244 99 345 77 -306 228 680 1019 915 541 72 -456
-246 93 339 72 -295 222 676 1009 913 524 65 -468
-250 92 343 76 -293 216 663 993 900 512 53 -480
-260 94 355 80 -297 219 661 986 895 502 40 -490
-272 94 367 83 -308 225 654 983 888 497 36 -495
-265 93 359 90 -320 231 651 986 886 496 31 -497
-278 86 365 86 -311 225 666 991 893 501 31 -497
-277 87 365 97 -321 225 663 993 889 498 33 -485
-288 82 372 96 -320 226 666 986 887 498 31 -488
-308 66 375 103 -330 226 673 983 892 486 28 -495
-314 66 381 121 -341 220 668 981 884 484 18 -497
-324 68 392 124 -347 223 671 974 874 469 14 -524
-326 70 397 129 -357 230 673 971 874 464 4 -536
-321 70 392 129 -360 234 668 971 865 462 -1 -544
-315 72 389 126 -355 231 678 978 872 462 -3 -551
-317 70 389 121 -352 230 680 981 870 471 3 -541
-316 65 382 124 -353 229 680 981 870 474 3 -531
-322 62 383 126 -348 224 685 978 884 471 6 -529
-324 70 393 131 -353 223 677 971 874 471 6 -527
-329 68 398 127 -358 232 672 961 865 459 -1 -541
-323 69 392 131 -364 232 667 959 862 454 -5 -549
-319 74 393 127 -358 230 665 964 860 449 -8 -549
-320 76 397 124 -357 234 670 966 857 457 -8 -539
-314 80 396 123 -359 236 667 974 862 459 -1 -522
-312 79 391 118 -355 237 670 971 860 461 3 -514
-315 70 386 118 -352 235 672 964 862 465 6 -512
-329 66 396 124 -350 229 670 964 865 460 3 -527
-326 63 391 132 -363 231 660 956 857 462 6 -522
-330 62 392 132 -359 226 662 956 860 455 -1 -541
-323 69 392 135 -361 226 677 961 862 453 -8 -546
-323 70 393 127 -358 230 665 969 860 453 -5 -549
-315 75 390 127 -358 232 679 976 862 465 -5 -546
-313 75 387 121 -353 234 677 978 865 467 1 -529
-315 70 385 120 -350 232 677 983 874 462 -1 -529
-323 65 387 124 -350 229 675 978 877 467 6 -519
-318 69 386 130 -355 227 670 971 872 470 6 -524
-313 76 388 125 -353 227 665 966 867 462 -1 -539
-320 77 397 119 -352 232 665 966 872 460 -1 -539
-298 91 388 123 -359 238 662 978 877 455 6 -536
-286 91 376 103 -343 240 672 991 882 477 11 -534
-292 88 380 97 -331 234 663 993 890 486 23 -519
-286 93 379 102 -336 235 658 1003 895 491 30 -509
-284 87 370 96 -332 236 663 1013 910 501 42 -492
-263 91 353 98 -326 230 660 1035 924 508 55 -485
-253 83 336 86 -308 223 653 1069 944 521 67 -485
-237 96 332 85 -295 210 663 1117 980 535 74 -483
-225 127 352 70 -285 214 668 1166 1010 561 94 -470
-209 153 363 48 -288 240 680 1192 1046 585 116 -458
-207 169 375 28 -286 258 675 1189 1071 624 142 -429
-201 197 397 19 -291 273 651 1101 1071 661 177 -397
-180 227 407 2 -298 297 624 926 995 673 199 -375
-163 264 426 -23 -293 317 575 704 880 641 196 -353
-143 303 446 -50 -295 345 502 523 780 578 179 -344
-132 340 471 -79 -295 374 433 350 680 534 172 -324
-94 395 490 -102 -301 406 353 147 553 483 186 -295
-58 440 497 -148 -290 442 253 -59 409 414 169 -268
-25 468 492 -190 -276 468 158 -225 305 341 152 -241
12 476 463 -220 -257 480 48 -391 202 297 169 -190
51 480 428 -244 -223 469 -71 -574 68 258 186 -146
91 495 402 -264 -185 455 -207 -784 -104 180 179 -109
125 501 373 -292 -152 448 -368 -994 -280 70 167 -78
156 504 347 -312 -120 437 -513 -1174 -436 -34 142 -51
180 510 329 -329 -92 427 -626 -1330 -580 -127 138 -12
191 498 304 -345 -71 419 -731 -1471 -724 -222 135 29
200 497 297 -344 -53 402 -821 -1605 -866 -320 118 68
203 497 292 -348 -46 397 -923 -1754 -1022 -425 84 97
211 486 275 -350 -41 396 -999 -1873 -1154 -552 28 102
214 470 255 -348 -29 381 -1057 -2000 -1298 -680 -31 109
236 456 219 -342 -18 363 -1123 -2137 -1444 -819 -95 107
263 448 185 -346 10 337 -1194 -2257 -1590 -958 -153 124
291 450 158 -356 41 317 -1240 -2330 -1698 -1090 -202 139
308 442 133 -370 68 305 -1284 -2366 -1781 -1200 -239 173
310 439 128 -375 89 289 -1294 -2381 -1834 -1278 -263 207
305 434 128 -374 92 284 -1316 -2400 -1891 -1331 -268 258
321 446 124 -369 90 281 -1323 -2403 -1934 -1405 -295 292
318 453 135 -383 100 286 -1314 -2381 -1949 -1473 -336 309
297 470 173 -385 92 295 -1289 -2315 -1930 -1531 -380 322
289 475 186 -383 63 323 -1248 -2237 -1893 -1561 -417 324
284 466 181 -381 52 331 -1197 -2159 -1849 -1583 -458 322
290 445 154 -374 52 324 -1155 -2086 -1815 -1595 -505 329
281 414 132 -367 68 301 -1116 -2015 -1776 -1607 -549 334
273 374 101 -347 75 274 -1060 -1917 -1703 -1612 -585 334
264 337 73 -323 86 239 -1011 -1830 -1656 -1586 -592 351
269 296 26 -300 97 207 -957 -1737 -1588 -1556 -605 363
250 258 8 -281 123 163 -911 -1659 -1529 -1520 -602 370
231 229 -2 -253 122 134 -874 -1581 -1468 -1490 -600 373
209 204 -4 -230 117 113 -818 -1490 -1393 -1444 -583 380
209 172 -37 -207 107 100 -762 -1400 -1324 -1394 -553 392
215 145 -70 -191 123 67 -706 -1293 -1241 -1343 -536 402
207 112 -95 -180 143 37 -640 -1176 -1154 -1270 -502 419
200 92 -106 -159 151 8 -586 -1071 -1054 -1199 -473 436
190 78 -111 -146 153 -6 -525 -954 -956 -1126 -439 453
187 81 -106 -134 151 -15 -457 -829 -839 -1036 -395 456
186 87 -96 -135 146 -12 -391 -701 -717 -943 -339 463
170 87 -81 -136 141 -3 -330 -572 -588 -838 -285 463
153 96 -56 -129 125 2 -247 -421 -453 -718 -217 470
159 107 -51 -124 104 20 -174 -272 -319 -589 -141 475
155 109 -45 -132 104 28 -101 -130 -195 -477 -87 466
135 104 -29 -132 100 31 -30 -1 -73 -367 -41 453
105 97 -8 -119 81 37 33 110 24 -267 14 466
71 95 23 -101 56 45 99 213 124 -180 41 446
38 97 58 -81 24 61 162 323 222 -106 63 409
-1 100 101 -67 -9 79 228 420 314 -38 75 334
-47 95 142 -48 -50 102 299 513 405 29 75 253
-92 102 195 -22 -94 120 361 608 486 98 78 183
-119 98 219 -4 -144 150 425 698 562 154 70 104
-149 86 236 9 -169 159 490 784 635 212 61 19
-168 81 251 30 -192 162 544 852 698 264 58 -46
-183 84 268 42 -210 167 586 903 750 311 46 -126
-211 79 290 49 -225 176 622 952 798 345 34 -192
-234 76 312 66 -250 186 649 1001 845 377 31 -251
-251 70 322 78 -273 195 686 1052 891 413 34 -309
-268 73 341 90 -286 197 720 1101 937 455 51 -341
-291 65 356 97 -305 208 751 1152 977 492 58 -373
-308 63 371 112 -324 212 793 1208 1033 535 73 -397
-306 66 372 122 -340 218 830 1255 1062 577 92 -407
-311 60 371 119 -339 222 847 1277 1086 609 104 -422
-316 55 371 124 -341 217 864 1291 1106 623 104 -439
-329 51 382 129 -344 214 864 1299 1120 633 106 -458
-335 47 383 138 -356 218 861 1308 1125 637 99 -473
-340 53 394 142 -360 217 876 1321 1135 635 92 -495
-336 52 389 142 -367 225 883 1325 1138 642 89 -505
-329 63 394 141 -363 222 886 1340 1142 650 89 -514
-335 66 401 131 -362 229 893 1357 1157 657 87 -514
-333 64 398 134 -368 235 898 1362 1164 672 92 -505
-333 56 389 133 -366 232 915 1379 1179 677 94 -512
-338 52 390 138 -361 224 911 1374 1184 686 102 -512
-347 50 398 141 -365 222 903 1382 1181 686 99 -522
-356 56 414 147 -373 224 911 1386 1186 681 94 -534
-354 56 411 149 -385 235 913 1396 1191 682 92 -536
-353 61 416 147 -383 234 915 1411 1194 690 92 -541
-349 62 412 145 -385 239 930 1428 1211 702 99 -534
-350 55 406 142 -382 238 930 1433 1208 719 111 -519
-349 49 399 147 -379 232 932 1438 1223 721 114 -519
-348 49 399 150 -374 225 935 1435 1228 721 114 -514
-355 45 401 149 -374 224 930 1433 1218 714 106 -531
-355 46 404 155 -378 224 930 1440 1221 704 97 -549
-357 50 409 153 -379 225 937 1443 1223 709 97 -549
-354 56 411 153 -383 230 935 1457 1230 709 99 -551
-359 51 411 149 -382 235 950 1473 1240 726 102 -546
-355 47 404 153 -384 233 957 1487 1252 736 114 -529
-355 45 401 153 -379 227 959 1492 1260 750 121 -522
-364 40 405 155 -378 224 972 1497 1272 750 121 -529
-364 40 405 161 -384 223 969 1502 1274 755 124 -531
-351 39 392 161 -384 223 969 1502 1272 753 119 -546
-353 46 401 156 -371 216 974 1509 1277 750 119 -553
-353 50 404 152 -377 223 974 1514 1277 753 116 -556
-344 49 394 151 -378 227 978 1534 1284 755 116 -558
-343 51 396 147 -368 222 988 1553 1299 765 119 -544
-346 52 400 145 -370 223 983 1558 1301 776 128 -536
-354 42 398 146 -373 226 988 1561 1311 783 128 -536
-364 41 406 155 -376 220 988 1563 1311 790 131 -539
-367 41 411 161 -383 224 983 1563 1311 781 124 -551
-367 50 417 162 -388 226 990 1578 1321 776 116 -551
-361 66 427 158 -392 234 995 1586 1323 781 119 -563
-351 66 417 147 -393 248 995 1603 1330 788 121 -561
-354 62 416 142 -383 243 1012 1623 1343 795 126 -556
-351 56 408 145 -384 239 1014 1640 1360 812 138 -541
-351 41 393 147 -378 233 1022 1647 1367 827 148 -529
-354 41 395 155 -371 218 1029 1652 1369 832 155 -527
-348 46 395 156 -373 220 1019 1654 1377 831 155 -534
-356 42 399 150 -371 221 1027 1667 1384 826 145 -546
-359 47 406 156 -377 221 1032 1681 1391 831 145 -549
-353 58 413 155 -382 227 1027 1693 1396 841 155 -546
-345 56 403 146 -382 235 1053 1715 1416 851 155 -549
-346 57 404 144 -373 229 1061 1737 1433 861 167 -529
-356 47 404 144 -375 231 1061 1750 1445 878 177 -524
-360 36 398 153 -380 226 1068 1759 1460 887 177 -529
-359 41 400 161 -378 217 1066 1767 1467 892 180 -531
-354 46 400 158 -378 222 1069 1764 1457 892 180 -544
-364 44 408 153 -376 224 1083 1781 1467 888 173 -556
-364 47 411 160 -384 227 1086 1801 1479 898 176 -553
-354 50 404 157 -387 229 1098 1828 1494 906 176 -551
-357 50 408 151 -378 227 1112 1845 1511 920 183 -546
-344 53 398 153 -382 229 1112 1857 1516 937 193 -531
-361 47 409 145 -370 227 1120 1869 1530 937 193 -531
-365 42 408 156 -384 228 1122 1874 1540 947 198 -527
-371 44 415 161 -386 226 1120 1879 1547 949 200 -536
-353 63 417 163 -392 231 1122 1894 1557 949 193 -556
-357 67 425 144 -384 240 1130 1906 1565 954 195 -553
-355 75 432 145 -391 246 1139 1928 1572 961 190 -556
-345 78 424 139 -393 254 1161 1952 1591 976 198 -549
-368 62 430 133 -384 251 1171 1967 1604 993 212 -529
-376 49 424 152 -399 246 1176 1981 1621 998 212 -534
-378 45 423 163 -399 238 1176 1977 1623 1005 215 -529
-382 45 427 166 -400 234 1171 1977 1621 998 210 -544
-381 49 431 168 -405 237 1176 1982 1626 998 205 -561
-382 51 433 166 -406 240 1178 1992 1630 1000 203 -558
-373 61 436 166 -408 244 1181 2007 1650 1003 205 -563
-366 63 431 156 -405 249 1195 2026 1652 1020 207 -558
-377 63 441 151 -399 248 1198 2031 1665 1032 222 -544
-386 55 441 157 -409 253 1199 2041 1669 1045 234 -531
-388 56 446 166 -414 248 1214 2043 1682 1055 237 -536
-388 51 441 166 -417 250 1209 2046 1687 1053 237 -536
-393 50 442 168 -415 245 1207 2041 1687 1055 239 -549
-394 51 445 172 -419 247 1216 2053 1694 1050 229 -563
-387 56 442 172 -420 249 1221 2063 1704 1055 229 -568
-382 60 441 166 -415 250 1231 2075 1713 1067 232 -563
-394 58 452 161 -413 250 1238 2085 1721 1079 237 -556
-386 64 450 168 -424 256 1233 2080 1723 1089 244 -544
-386 62 447 161 -418 258 1236 2078 1730 1092 244 -544
-386 63 450 162 -416 255 1233 2060 1731 1096 244 -549
-397 56 452 161 -418 256 1219 2053 1724 1091 239 -553
-397 61 457 171 -424 255 1224 2053 1727 1089 237 -561
-386 75 462 168 -426 260 1221 2048 1727 1091 239 -561
-370 90 462 156 -424 270 1219 2046 1729 1091 244 -551
-359 99 458 140 -416 276 1233 2056 1731 1094 244 -551
-354 96 451 130 -409 278 1233 2048 1731 1108 266 -524
-355 95 452 129 -403 273 1229 2046 1729 1116 276 -517
-359 92 452 130 -404 273 1219 2034 1736 1123 286 -502
-347 97 445 134 -405 273 1207 2014 1727 1116 295 -502
-351 99 450 125 -396 272 1199 1992 1714 1114 290 -507
-349 99 448 127 -401 275 1190 1975 1707 1104 290 -509
-342 106 448 125 -399 273 1185 1968 1700 1107 300 -495
-332 112 445 118 -396 277 1188 1965 1697 1109 305 -497
-318 113 431 111 -388 280 1178 1953 1690 1117 322 -461
-311 112 425 102 -375 272 1163 1941 1683 1117 325 -451
-305 103 409 100 -369 269 1158 1919 1673 1117 334 -436
-302 111 413 101 -358 256 1141 1895 1661 1109 339 -429
-285 118 406 96 -358 262 1122 1870 1641 1102 339 -431
-287 121 411 83 -346 262 1112 1855 1631 1085 337 -434
-283 128 413 83 -349 266 1092 1836 1614 1082 344 -429
-276 132 409 78 -348 272 1090 1824 1602 1082 351 -412
-263 140 406 72 -343 271 1080 1812 1595 1084 361 -395
-250 144 396 61 -335 273 1051 1785 1575 1084 375 -368
-241 148 391 53 -324 271 1051 1763 1566 1075 368 -358
-232 152 386 46 -316 270 1029 1736 1548 1070 388 -346
-222 152 376 40 -309 271 1009 1712 1531 1053 385 -348
-225 155 381 35 -299 266 997 1685 1517 1043 385 -348
-214 156 371 35 -303 270 980 1663 1492 1036 390 -336
-210 165 376 29 -293 265 966 1654 1478 1026 395 -326
-205 170 376 23 -293 272 961 1632 1466 1026 410 -307
-194 173 369 18 -291 275 944 1610 1453 1027 424 -280
-186 173 361 11 -281 272 929 1591 1444 1024 424 -261
-189 168 359 6 -273 267 918 1554 1423 1019 432 -239
-183 167 351 11 -274 265 889 1517 1379 1005 427 -236
-177 170 349 8 -267 261 872 1490 1364 973 414 -248
-180 178 358 3 -263 260 860 1469 1352 956 412 -244
-160 185 346 1 -269 270 838 1451 1332 946 414 -236
-170 188 358 -11 -253 267 840 1437 1320 939 419 -229
-168 182 351 -8 -264 275 828 1417 1305 939 427 -209
-168 184 353 -5 -258 269 813 1400 1291 927 422 -207
-176 182 361 -7 -260 271 813 1381 1284 914 417 -204
-165 185 352 -1 -268 273 801 1361 1266 907 412 -202
-175 178 355 -8 -258 271 777 1327 1244 890 405 -214
-176 183 361 -1 -265 267 777 1308 1227 865 390 -236
-176 185 363 -2 -269 273 767 1291 1210 851 378 -244
-191 174 368 -3 -270 276 762 1284 1196 843 366 -251
-204 165 370 8 -280 272 767 1277 1188 834 361 -248
-210 159 370 20 -286 270 757 1255 1171 829 353 -246
-220 143 366 27 -290 266 752 1240 1162 812 334 -261
-225 139 366 39 -292 255 747 1218 1147 792 319 -273
-230 141 373 44 -295 254 728 1194 1118 775 305 -300
-239 140 380 45 -301 259 728 1179 1113 754 283 -319
-242 140 385 50 -308 262 728 1172 1103 739 268 -329
-245 140 388 51 -313 264 723 1165 1088 732 258 -336
-252 128 383 52 -316 265 733 1157 1076 720 249 -339
-248 127 377 62 -317 256 726 1147 1064 708 236 -341
-259 113 375 61 -312 253 731 1138 1057 698 222 -344
-264 106 373 73 -317 245 733 1123 1049 688 212 -358
-270 102 374 79 -318 241 716 1111 1032 671 205 -368
-273 100 374 84 -322 239 716 1108 1032 656 185 -392
-280 99 379 86 -323 237 716 1104 1027 652 180 -402
-281 100 382 91 -329 241 714 1101 1018 651 175 -409
-275 105 380 91 -331 242 728 1106 1018 649 163 -414
-273 106 379 85 -328 243 726 1096 1013 649 161 -412
-274 96 372 84 -325 244 726 1101 1010 639 151 -407
-282 87 369 89 -323 235 723 1094 1010 634 148 -412
-292 83 376 99 -325 230 719 1079 998 624 144 -417
-285 89 374 105 -334 230 716 1067 986 617 134 -429
-287 93 380 99 -329 233 709 1062 981 600 119 -451
-278 94 372 97 -334 237 709 1050 979 595 114 -456
-265 99 365 92 -324 235 711 1062 969 595 109 -453
-263 106 369 84 -314 233 714 1062 969 594 103 -453
-264 104 369 79 -316 240 711 1062 974 586 101 -453
-273 105 378 80 -317 237 721 1068 976 584 93 -458
-282 99 381 84 -325 242 723 1063 976 584 101 -451
-281 98 378 92 -331 242 715 1056 976 581 98 -453
-286 93 378 92 -330 240 720 1063 976 567 91 -468
-289 98 386 97 -333 237 722 1065 979 579 91 -470
-282 106 388 96 -338 243 732 1068 971 579 91 -468
-285 104 388 89 -335 249 735 1058 974 581 91 -461
-279 105 383 91 -336 248 732 1068 971 581 96 -451
-275 105 379 88 -331 246 730 1068 959 579 93 -448
-280 102 382 85 -328 243 727 1061 964 574 91 -448
-274 99 373 89 -331 243 720 1056 959 569 84 -458
-278 98 375 88 -324 236 722 1063 969 564 71 -478
-284 105 388 90 -327 236 720 1063 971 564 76 -480
-276 109 386 90 -336 247 718 1068 969 564 71 -483
-278 109 386 84 -331 247 730 1078 971 566 71 -483
-275 101 376 85 -331 248 735 1080 976 574 79 -470
-286 89 376 88 -325 240 730 1080 976 579 81 -470
-284 91 376 99 -331 232 737 1075 981 581 86 -466
-285 94 378 96 -330 234 737 1073 979 576 86 -468
-280 94 373 96 -331 237 732 1058 971 570 81 -478
-278 94 371 94 -327 235 727 1065 974 565 57 -492
-288 98 386 92 -324 234 727 1073 976 560 67 -495
-286 99 386 95 -337 242 735 1080 976 567 74 -488
-275 99 376 94 -335 243 735 1078 984 577 81 -475
-283 91 376 88 -326 237 730 1083 982 582 86 -468
-283 88 371 95 -329 234 733 1080 984 582 79 -473
-281 98 379 98 -327 230 737 1083 989 580 81 -461
-291 94 386 91 -330 239 720 1078 982 582 86 -468
-297 94 393 99 -338 241 728 1075 987 582 84 -475
-291 104 395 101 -345 243 728 1073 984 577 81 -480
-284 104 388 94 -343 251 728 1083 984 579 81 -485
-286 101 388 90 -335 247 745 1092 989 584 79 -480
-280 106 388 93 -337 246 742 1092 987 591 88 -463
-286 99 386 87 -334 247 740 1087 984 591 88 -458
-300 88 388 94 -335 243 737 1080 989 591 88 -458
-305 78 383 106 -344 239 718 1070 980 586 91 -458
-316 77 393 113 -344 231 720 1073 977 582 86 -478
-322 84 408 120 -354 236 723 1075 982 582 86 -478
-309 79 390 118 -365 246 720 1078 975 582 84 -488
-296 94 390 115 -350 235 733 1090 977 582 74 -492
-285 100 387 101 -343 243 730 1087 980 585 79 -483
-283 104 388 93 -337 243 733 1087 984 590 84 -470
-287 94 382 90 -335 247 742 1090 997 597 88 -468
-287 99 387 96 -335 239 730 1083 992 604 91 -468
-280 100 381 94 -338 243 723 1083 987 592 86 -480
-291 104 397 90 -332 241 727 1080 987 585 79 -488
-276 115 391 94 -345 251 724 1084 984 583 79 -490
-279 111 392 80 -334 253 729 1086 987 587 81 -483
-268 117 386 84 -337 252 736 1091 992 587 84 -480
-263 118 382 76 -328 252 729 1086 982 592 84 -473
-276 107 383 73 -323 252 729 1084 987 589 83 -475
-291 105 397 84 -330 246 724 1076 980 585 83 -478
-289 109 399 94 -345 252 717 1069 977 577 81 -485
-293 109 402 90 -345 254 722 1074 980 577 76 -497
-291 109 402 93 -348 257 719 1071 977 575 73 -500
-280 121 402 91 -347 256 712 1074 967 575 71 -500
-283 116 399 80 -340 263 727 1084 980 570 64 -497
-284 110 394 84 -340 258 729 1084 982 582 81 -475
-282 102 385 88 -339 252 732 1086 984 587 81 -473
-296 98 394 90 -333 244 732 1081 989 585 86 -470
-291 102 394 100 -345 246 719 1074 989 583 88 -478
-288 109 397 95 -343 248 719 1070 972 576 78 -492
-289 115 404 90 -342 253 719 1067 965 564 76 -500
-287 115 402 88 -347 259 724 1067 962 566 73 -495
-294 107 402 87 -344 258 729 1077 970 566 71 -495
-282 113 397 94 -348 255 732 1075 970 576 81 -480
-283 110 393 84 -339 255 732 1082 977 581 81 -478
-285 105 391 87 -338 251 734 1082 984 581 83 -473
-310 88 398 90 -338 247 722 1070 975 581 88 -468
-317 78 395 111 -354 242 705 1055 962 573 83 -483
-315 74 388 120 -356 236 703 1053 958 559 69 -497
-315 88 402 121 -350 233 695 1055 958 556 61 -505
-307 98 404 113 -358 245 708 1060 955 558 61 -500
-301 89 391 105 -355 251 713 1058 955 561 64 -495
-301 91 393 106 -346 240 708 1058 953 558 64 -490
-302 83 385 105 -347 242 713 1055 958 553 64 -488
-321 79 401 110 -343 234 710 1048 960 556 61 -490
-318 74 393 121 -360 240 698 1041 948 548 56 -497
-311 74 386 123 -355 235 703 1041 945 541 49 -509
-314 82 396 120 -348 231 703 1038 948 539 51 -514
-304 84 388 117 -354 240 698 1043 943 539 49 -507
-306 85 392 111 -346 238 710 1055 950 545 54 -500
-306 77 383 111 -349 239 708 1058 948 554 69 -490
-307 79 387 116 -344 231 710 1058 958 557 64 -485
-310 77 387 115 -348 234 710 1046 953 549 69 -473
-314 74 387 117 -349 233 693 1033 940 545 66 -480
-309 76 384 121 -350 233 695 1031 936 535 51 -502
-318 72 390 117 -347 230 695 1026 931 530 49 -507
-309 82 390 124 -354 233 692 1024 919 525 44 -512
-312 87 400 115 -349 238 704 1036 923 525 39 -512
-314 88 401 113 -357 244 704 1041 931 532 42 -505
-314 87 400 113 -358 245 702 1036 928 534 44 -495
-314 84 397 115 -357 245 699 1034 931 537 47 -488
-306 83 389 116 -355 242 692 1027 928 532 44 -500
-314 80 394 112 -348 236 690 1025 926 525 34 -514
-322 80 402 117 -354 238 694 1027 928 520 32 -512
-318 85 403 122 -363 242 692 1027 926 520 34 -514
-314 87 400 117 -361 245 697 1032 923 517 27 -519
-304 87 390 115 -357 245 707 1039 928 520 29 -519
-309 79 389 110 -347 240 699 1042 933 525 37 -495
-309 73 383 115 -349 235 702 1039 933 525 42 -495
-316 70 386 118 -346 230 694 1027 931 532 44 -485
-317 68 387 123 -352 229 682 1020 921 523 38 -502
-321 65 386 124 -353 229 690 1020 919 516 33 -509
-314 76 390 128 -354 227 690 1022 916 511 30 -517
-310 86 397 120 -352 235 690 1029 911 509 26 -517
-309 87 396 112 -354 242 699 1029 919 513 30 -512
-307 84 392 111 -353 242 699 1029 919 521 35 -497
-314 78 392 112 -350 240 702 1029 916 518 35 -497
-323 73 397 118 -353 238 697 1025 926 516 35 -497
-323 71 395 126 -360 238 683 1025 914 509 35 -505
-320 78 400 127 -359 235 685 1015 911 509 28 -517
-306 93 400 121 -360 240 680 1010 909 508 30 -517
-293 104 397 107 -353 248 680 1017 909 506 11 -529
-289 108 397 95 -346 252 700 1037 919 513 26 -519
-284 106 391 91 -343 255 705 1039 926 528 40 -497
-282 103 385 89 -338 250 705 1044 931 533 48 -492
-290 97 387 90 -333 246 707 1039 943 535 50 -490
-293 90 385 98 -339 244 705 1034 940 542 55 -488
-288 98 387 101 -338 239 695 1032 933 533 48 -502
-290 97 387 95 -337 244 702 1032 932 525 45 -502
-289 104 394 98 -338 244 695 1027 920 525 48 -502
-289 109 398 93 -341 250 695 1027 912 521 45 -502
-292 101 393 90 -343 255 700 1029 912 516 45 -500
-290 99 389 95 -342 248 700 1032 910 516 43 -492
-298 97 394 96 -340 246 697 1029 920 519 40 -488
-300 94 394 101 -346 247 695 1029 922 519 43 -490
-300 93 394 104 -347 246 688 1020 910 514 40 -500
-311 87 397 104 -347 244 692 1022 917 507 30 -519
-311 84 395 112 -354 243 685 1017 917 507 28 -519
-303 89 391 113 -353 240 673 1025 910 509 30 -519
-307 81 389 107 -347 241 691 1032 917 509 30 -517
-310 81 391 113 -348 235 691 1029 917 512 33 -502
-315 76 391 116 -351 238 691 1032 917 521 26 -497
-313 70 383 121 -353 235 691 1020 922 521 35 -495
-311 67 379 122 -348 227 679 1012 910 511 33 -502
-317 65 383 123 -346 224 682 1007 902 501 18 -517
-317 73 391 127 -351 224 682 1013 902 496 18 -519
-315 77 393 123 -354 234 682 1018 905 499 23 -517
-313 79 393 120 -354 235 687 1026 912 506 30 -509
-316 83 401 117 -353 237 684 1028 910 514 38 -500
-313 86 399 117 -359 243 682 1021 902 511 38 -497
-309 82 391 115 -356 244 687 1013 907 506 35 -497
-321 73 396 115 -351 238 677 1008 912 502 28 -505
-316 81 399 124 -359 235 677 1006 905 497 26 -524
-313 77 390 118 -358 240 684 1011 910 495 23 -524
-313 77 390 118 -352 234 674 1011 900 495 26 -522
-320 73 394 118 -352 234 682 1018 893 500 21 -527
-315 77 393 124 -357 235 687 1026 912 500 23 -517
-310 73 384 120 -354 235 684 1028 910 510 28 -505
-313 70 383 120 -347 230 691 1023 910 507 30 -502
-312 69 382 122 -348 227 689 1013 910 502 33 -500
-324 63 390 121 -347 226 683 1011 902 495 26 -512
-323 70 395 130 -357 226 683 1012 903 489 19 -524
-321 76 398 126 -358 233 679 1007 900 489 19 -524
-321 72 395 121 -360 237 677 1010 898 488 13 -534
-319 70 392 124 -357 234 682 1012 895 488 8 -531
-311 77 390 124 -356 231 694 1022 898 490 13 -527
-315 77 395 116 -350 234 699 1024 900 493 15 -514
-315 74 390 118 -355 236 699 1022 903 493 15 -512
-317 62 380 120 -352 232 699 1022 905 498 20 -517
-318 64 384 127 -349 221 696 1012 900 495 20 -517
-317 69 387 126 -351 223 686 1007 893 490 20 -522
-323 70 395 124 -352 228 689 1007 898 483 13 -529
-329 68 400 126 -358 233 684 1005 886 485 15 -527
-327 70 400 130 -364 233 686 1005 881 484 10 -531
-318 75 395 127 -363 234 699 1019 891 484 13 -519
-318 72 392 121 -356 236 699 1022 895 491 20 -512
-316 66 384 123 -355 233 694 1024 905 494 22 -509
-316 62 379 124 -350 225 703 1017 908 499 22 -505
-316 69 386 126 -347 220 694 1007 898 489 22 -517
-322 70 395 123 -351 227 701 1002 893 477 10 -529
-316 75 392 125 -358 232 694 1010 898 477 10 -534
-304 76 381 120 -353 234 694 1014 898 482 13 -527
-312 72 387 113 -342 228 701 1024 903 486 15 -524
-317 69 387 119 -350 229 693 1019 900 496 13 -514
-315 62 378 124 -352 228 695 1019 898 493 25 -519
-316 60 378 126 -346 220 698 1007 900 493 17 -519
-321 66 389 127 -346 220 690 1002 893 486 13 -524
-318 81 400 126 -355 227 685 1005 893 484 13 -531
-323 79 402 118 -360 240 681 997 895 479 13 -534
-319 83 403 121 -363 240 678 1000 883 476 8 -536
-313 88 402 118 -362 244 690 1007 888 479 5 -536
-315 81 396 112 -358 245 690 1012 891 481 15 -519
-315 77 394 116 -356 239 695 1012 898 484 13 -514
-312 71 384 118 -354 236 698 1012 905 486 17 -512
-318 63 381 120 -348 228 690 1002 903 487 20 -509
-326 62 388 127 -349 223 683 995 893 482 15 -519
-326 66 392 131 -356 225 695 1005 895 477 10 -531
-321 72 394 129 -359 229 688 1000 888 477 20 -519
-312 77 391 124 -356 234 690 1002 886 477 17 -524
-313 77 391 116 -351 234 698 1012 893 477 15 -519
-310 72 383 118 -351 236 693 1007 888 485 27 -500
-309 70 378 118 -346 228 693 1010 893 485 25 -502
-309 58 366 119 -343 226 688 1002 893 485 22 -505
-318 71 389 125 -337 214 673 995 886 477 17 -522
-316 70 385 123 -354 231 681 992 888 474 13 -539
-322 79 400 123 -350 229 681 997 888 474 8 -539
-318 85 402 121 -361 240 681 1002 888 477 10 -549
-311 85 395 116 -360 245 691 1011 891 477 5 -531
-311 79 389 113 -352 242 691 1008 886 484 15 -517
-318 70 388 115 -349 234 691 1006 891 489 17 -512
-315 69 383 124 -351 231 693 1003 895 491 15 -509
-298 87 385 123 -348 227 683 1001 893 484 17 -512
-293 97 390 104 -340 237 683 1001 893 479 15 -524
-296 102 398 97 -340 244 691 1003 895 479 15 -529
-302 98 400 97 -345 251 691 1011 893 485 18 -524
-301 96 398 102 -350 250 708 1023 900 490 21 -514
-299 97 398 103 -349 248 703 1028 910 500 31 -502
-293 96 389 101 -348 248 708 1030 913 507 36 -495
-298 102 400 98 -340 243 713 1033 922 510 40 -490
-306 103 410 98 -348 253 710 1033 925 507 45 -490
-308 113 421 102 -358 257 708 1033 920 510 43 -507
-303 119 422 97 -364 267 713 1030 920 505 38 -509
-301 118 420 92 -361 272 715 1034 922 505 36 -517
-294 132 427 92 -360 270 722 1041 922 507 36 -519
-289 141 432 81 -360 281 727 1046 930 512 38 -512
-288 137 426 74 -360 287 722 1048 930 516 36 -505
-289 125 415 75 -356 282 726 1053 944 524 43 -497
-290 124 415 82 -351 271 726 1046 942 531 50 -492
-278 131 410 83 -351 271 714 1038 939 526 48 -497
-275 142 417 74 -343 272 719 1036 937 521 48 -502
-265 144 410 66 -345 281 719 1038 937 526 48 -505
-250 157 407 60 -337 277 719 1053 942 524 50 -500
-231 169 400 47 -328 282 724 1055 947 541 58 -483
-227 175 405 31 -315 285 726 1060 947 546 70 -463
-226 171 399 26 -316 289 731 1068 959 548 79 -451
-228 166 396 27 -312 285 731 1058 964 559 87 -448
-244 155 402 31 -312 281 712 1043 954 559 89 -448
-250 155 407 44 -323 278 699 1036 944 552 77 -463
-261 158 422 48 -328 282 690 1031 939 539 75 -473
-263 153 417 52 -342 289 682 1031 934 537 70 -478
-259 147 407 55 -339 286 692 1041 942 542 70 -475
-258 141 399 57 -333 277 695 1046 944 547 75 -466
-259 135 394 59 -328 271 695 1043 944 549 82 -458
-261 126 389 63 -327 265 697 1038 944 552 79 -461
-259 124 384 68 -326 258 687 1026 939 544 79 -463
-254 124 379 68 -322 254 678 1021 934 539 72 -478
-246 124 370 65 -317 252 687 1029 939 534 60 -483
-246 129 375 62 -308 248 687 1034 937 539 79 -470
-242 123 365 59 -310 253 685 1036 939 541 72 -473
-243 110 354 60 -304 244 690 1036 942 549 77 -461
-255 101 356 66 -299 232 680 1029 930 551 79 -448
-244 99 345 77 -306 228 680 1019 915 541 72 -456
-246 93 339 72 -295 222 676 1009 913 524 65 -468
-250 92 343 76 -293 216 663 993 900 512 53 -480
-260 94 355 80 -297 219 661 986 895 502 40 -490
-272 94 367 83 -308 225 654 983 888 497 36 -495
-265 93 359 90 -320 231 651 986 886 496 31 -497
-278 86 365 86 -311 225 666 991 893 501 31 -497
-277 87 365 97 -321 225 663 993 889 498 33 -485
-288 82 372 96 -320 226 666 986 887 498 31 -488
-308 66 375 103 -330 226 673 983 892 486 28 -495
-314 66 381 121 -341 220 668 981 884 484 18 -497
-324 68 392 124 -347 223 671 974 874 469 14 -524
-326 70 397 129 -357 230 673 971 874 464 4 -536
-321 70 392 129 -360 234 668 971 865 462 -1 -544
-315 72 389 126 -355 231 678 978 872 462 -3 -551
-317 70 389 121 -352 230 680 981 870 471 3 -541
-316 65 382 124 -353 229 680 981 870 474 3 -531
-322 62 383 126 -348 224 685 978 884 471 6 -529
-324 70 393 131 -353 223 677 971 874 471 6 -527
-329 68 398 127 -358 232 672 961 865 459 -1 -541
-323 69 392 131 -364 232 667 959 862 454 -5 -549
-319 74 393 127 -358 230 665 964 860 449 -8 -549
-320 76 397 124 -357 234 670 966 857 457 -8 -539
-314 80 396 123 -359 236 667 974 862 459 -1 -522
-312 79 391 118 -355 237 670 971 860 461 3 -514
-315 70 386 118 -352 235 672 964 862 465 6 -512
-329 66 396 124 -350 229 670 964 865 460 3 -527
-326 63 391 132 -363 231 660 956 857 462 6 -522
-330 62 392 132 -359 226 662 956 860 455 -1 -541
-323 69 392 135 -361 226 677 961 862 453 -8 -546
-323 70 393 127 -358 230 665 969 860 453 -5 -549
-315 75 390 127 -358 232 679 976 862 465 -5 -546
-313 75 387 121 -353 234 677 978 865 467 1 -529
-315 70 385 120 -350 232 677 983 874 462 -1 -529
-323 65 387 124 -350 229 675 978 877 467 6 -519
-318 69 386 130 -355 227 670 971 872 470 6 -524
-313 76 388 125 -353 227 665 966 867 462 -1 -539
-320 77 397 119 -352 232 665 966 872 460 -1 -539
-298 91 388 123 -359 238 662 978 877 455 6 -536
-286 91 376 103 -343 240 672 991 882 477 11 -534
-292 88 380 97 -331 234 663 993 890 486 23 -519
-286 93 379 102 -336 235 658 1003 895 491 30 -509
-284 87 370 96 -332 236 663 1013 910 501 42 -492
-263 91 353 98 -326 230 660 1035 924 508 55 -485
-253 83 336 86 -308 223 653 1069 944 521 67 -485
-237 96 332 85 -295 210 663 1117 980 535 74 -483
-225 127 352 70 -285 214 668 1166 1010 561 94 -470
-209 153 363 48 -288 240 680 1192 1046 585 116 -458
-207 169 375 28 -286 258 675 1189 1071 624 142 -429
-201 197 397 19 -291 273 651 1101 1071 661 177 -397
-180 227 407 2 -298 297 624 926 995 673 199 -375
-163 264 426 -23 -293 317 575 704 880 641 196 -353
-143 303 446 -50 -295 345 502 523 780 578 179 -344
-132 340 471 -79 -295 374 433 350 680 534 172 -324
-94 395 490 -102 -301 406 353 147 553 483 186 -295
-58 440 497 -148 -290 442 253 -59 409 414 169 -268
-25 468 492 -190 -276 468 158 -225 305 341 152 -241
12 476 463 -220 -257 480 48 -391 202 297 169 -190
51 480 428 -244 -223 469 -71 -574 68 258 186 -146
91 495 402 -264 -185 455 -207 -784 -104 180 179 -109
125 501 373 -292 -152 448 -368 -994 -280 70 167 -78
156 504 347 -312 -120 437 -513 -1174 -436 -34 142 -51
180 510 329 -329 -92 427 -626 -1330 -580 -127 138 -12
191 498 304 -345 -71 419 -731 -1471 -724 -222 135 29
200 497 297 -344 -53 402 -821 -1605 -866 -320 118 68
203 497 292 -348 -46 397 -923 -1754 -1022 -425 84 97
211 486 275 -350 -41 396 -999 -1873 -1154 -552 28 102
214 470 255 -348 -29 381 -1057 -2000 -1298 -680 -31 109
236 456 219 -342 -18 363 -1123 -2137 -1444 -819 -95 107
263 448 185 -346 10 337 -1194 -2257 -1590 -958 -153 124
291 450 158 -356 41 317 -1240 -2330 -1698 -1090 -202 139
308 442 133 -370 68 305 -1284 -2366 -1781 -1200 -239 173
310 439 128 -375 89 289 -1294 -2381 -1834 -1278 -263 207
305 434 128 -374 92 284 -1316 -2400 -1891 -1331 -268 258
321 446 124 -369 90 281 -1323 -2403 -1934 -1405 -295 292
318 453 135 -383 100 286 -1314 -2381 -1949 -1473 -336 309
297 470 173 -385 92 295 -1289 -2315 -1930 -1531 -380 322
289 475 186 -383 63 323 -1248 -2237 -1893 -1561 -417 324
284 466 181 -381 52 331 -1197 -2159 -1849 -1583 -458 322
290 445 154 -374 52 324 -1155 -2086 -1815 -1595 -505 329
281 414 132 -367 68 301 -1116 -2015 -1776 -1607 -549 334
273 374 101 -347 75 274 -1060 -1917 -1703 -1612 -585 334
264 337 73 -323 86 239 -1011 -1830 -1656 -1586 -592 351
269 296 26 -300 97 207 -957 -1737 -1588 -1556 -605 363
250 258 8 -281 123 163 -911 -1659 -1529 -1520 -602 370
231 229 -2 -253 122 134 -874 -1581 -1468 -1490 -600 373
209 204 -4 -230 117 113 -818 -1490 -1393 -1444 -583 380
209 172 -37 -207 107 100 -762 -1400 -1324 -1394 -553 392
215 145 -70 -191 123 67 -706 -1293 -1241 -1343 -536 402
207 112 -95 -180 143 37 -640 -1176 -1154 -1270 -502 419
200 92 -106 -159 151 8 -586 -1071 -1054 -1199 -473 436
190 78 -111 -146 153 -6 -525 -954 -956 -1126 -439 453
187 81 -106 -134 151 -15 -457 -829 -839 -1036 -395 456
186 87 -96 -135 146 -12 -391 -701 -717 -943 -339 463
170 87 -81 -136 141 -3 -330 -572 -588 -838 -285 463
153 96 -56 -129 125 2 -247 -421 -453 -718 -217 470
159 107 -51 -124 104 20 -174 -272 -319 -589 -141 475
155 109 -45 -132 104 28 -101 -130 -195 -477 -87 466
135 104 -29 -132 100 31 -30 -1 -73 -367 -41 453
105 97 -8 -119 81 37 33 110 24 -267 14 466
71 95 23 -101 56 45 99 213 124 -180 41 446
38 97 58 -81 24 61 162 323 222 -106 63 409
-1 100 101 -67 -9 79 228 420 314 -38 75 334
-47 95 142 -48 -50 102 299 513 405 29 75 253
-92 102 195 -22 -94 120 361 608 486 98 78 183
-119 98 219 -4 -144 150 425 698 562 154 70 104
-149 86 236 9 -169 159 490 784 635 212 61 19
-168 81 251 30 -192 162 544 852 698 264 58 -46
-183 84 268 42 -210 167 586 903 750 311 46 -126
-211 79 290 49 -225 176 622 952 798 345 34 -192
-234 76 312 66 -250 186 649 1001 845 377 31 -251
-251 70 322 78 -273 195 686 1052 891 413 34 -309
-268 73 341 90 -286 197 720 1101 937 455 51 -341
-291 65 356 97 -305 208 751 1152 977 492 58 -373
-308 63 371 112 -324 212 793 1208 1033 535 73 -397
-306 66 372 122 -340 218 830 1255 1062 577 92 -407
-311 60 371 119 -339 222 847 1277 1086 609 104 -422
-316 55 371 124 -341 217 864 1291 1106 623 104 -439
-329 51 382 129 -344 214 864 1299 1120 633 106 -458
-335 47 383 138 -356 218 861 1308 1125 637 99 -473
-340 53 394 142 -360 217 876 1321 1135 635 92 -495
-336 52 389 142 -367 225 883 1325 1138 642 89 -505
-329 63 394 141 -363 222 886 1340 1142 650 89 -514
-335 66 401 131 -362 229 893 1357 1157 657 87 -514
-333 64 398 134 -368 235 898 1362 1164 672 92 -505
-333 56 389 133 -366 232 915 1379 1179 677 94 -512
-338 52 390 138 -361 224 911 1374 1184 686 102 -512
-347 50 398 141 -365 222 903 1382 1181 686 99 -522
-356 56 414 147 -373 224 911 1386 1186 681 94 -534
-354 56 411 149 -385 235 913 1396 1191 682 92 -536
-353 61 416 147 -383 234 915 1411 1194 690 92 -541
-349 62 412 145 -385 239 930 1428 1211 702 99 -534
-350 55 406 142 -382 238 930 1433 1208 719 111 -519
-349 49 399 147 -379 232 932 1438 1223 721 114 -519
-348 49 399 150 -374 225 935 1435 1228 721 114 -514
-355 45 401 149 -374 224 930 1433 1218 714 106 -531
-355 46 404 155 -378 224 930 1440 1221 704 97 -549
-357 50 409 153 -379 225 937 1443 1223 709 97 -549
-354 56 411 153 -383 230 935 1457 1230 709 99 -551
-359 51 411 149 -382 235 950 1473 1240 726 102 -546
-355 47 404 153 -384 233 957 1487 1252 736 114 -529
-355 45 401 153 -379 227 959 1492 1260 750 121 -522
-364 40 405 155 -378 224 972 1497 1272 750 121 -529
-364 40 405 161 -384 223 969 1502 1274 755 124 -531
-351 39 392 161 -384 223 969 1502 1272 753 119 -546
-353 46 401 156 -371 216 974 1509 1277 750 119 -553
-353 50 404 152 -377 223 974 1514 1277 753 116 -556
-344 49 394 151 -378 227 978 1534 1284 755 116 -558
-343 51 396 147 -368 222 988 1553 1299 765 119 -544
-346 52 400 145 -370 223 983 1558 1301 776 128 -536
-354 42 398 146 -373 226 988 1561 1311 783 128 -536
-364 41 406 155 -376 220 988 1563 1311 790 131 -539
-367 41 411 161 -383 224 983 1563 1311 781 124 -551
-367 50 417 162 -388 226 990 1578 1321 776 116 -551
-361 66 427 158 -392 234 995 1586 1323 781 119 -563
-351 66 417 147 -393 248 995 1603 1330 788 121 -561
-354 62 416 142 -383 243 1012 1623 1343 795 126 -556
-351 56 408 145 -384 239 1014 1640 1360 812 138 -541
-351 41 393 147 -378 233 1022 1647 1367 827 148 -529
-354 41 395 155 -371 218 1029 1652 1369 832 155 -527
-348 46 395 156 -373 220 1019 1654 1377 831 155 -534
-356 42 399 150 -371 221 1027 1667 1384 826 145 -546
-359 47 406 156 -377 221 1032 1681 1391 831 145 -549
-353 58 413 155 -382 227 1027 1693 1396 841 155 -546
-345 56 403 146 -382 235 1053 1715 1416 851 155 -549
-346 57 404 144 -373 229 1061 1737 1433 861 167 -529
-356 47 404 144 -375 231 1061 1750 1445 878 177 -524
-360 36 398 153 -380 226 1068 1759 1460 887 177 -529
-359 41 400 161 -378 217 1066 1767 1467 892 180 -531
-354 46 400 158 -378 222 1069 1764 1457 892 180 -544
-364 44 408 153 -376 224 1083 1781 1467 888 173 -556
-364 47 411 160 -384 227 1086 1801 1479 898 176 -553
-354 50 404 157 -387 229 1098 1828 1494 906 176 -551
-357 50 408 151 -378 227 1112 1845 1511 920 183 -546
-344 53 398 153 -382 229 1112 1857 1516 937 193 -531
-361 47 409 145 -370 227 1120 1869 1530 937 193 -531
-365 42 408 156 -384 228 1122 1874 1540 947 198 -527
-371 44 415 161 -386 226 1120 1879 1547 949 200 -536
-353 63 417 163 -392 231 1122 1894 1557 949 193 -556
-357 67 425 144 -384 240 1130 1906 1565 954 195 -553
-355 75 432 145 -391 246 1139 1928 1572 961 190 -556
-345 78 424 139 -393 254 1161 1952 1591 976 198 -549
-368 62 430 133 -384 251 1171 1967 1604 993 212 -529
-376 49 424 152 -399 246 1176 1981 1621 998 212 -534
-378 45 423 163 -399 238 1176 1977 1623 1005 215 -529
-382 45 427 166 -400 234 1171 1977 1621 998 210 -544
-381 49 431 168 -405 237 1176 1982 1626 998 205 -561
-382 51 433 166 -406 240 1178 1992 1630 1000 203 -558
-373 61 436 166 -408 244 1181 2007 1650 1003 205 -563
-366 63 431 156 -405 249 1195 2026 1652 1020 207 -558
-377 63 441 151 -399 248 1198 2031 1665 1032 222 -544
-386 55 441 157 -409 253 1199 2041 1669 1045 234 -531
-388 56 446 166 -414 248 1214 2043 1682 1055 237 -536
-388 51 441 166 -417 250 1209 2046 1687 1053 237 -536
-393 50 442 168 -415 245 1207 2041 1687 1055 239 -549
-394 51 445 172 -419 247 1216 2053 1694 1050 229 -563
-387 56 442 172 -420 249 1221 2063 1704 1055 229 -568
-382 60 441 166 -415 250 1231 2075 1713 1067 232 -563
-394 58 452 161 -413 250 1238 2085 1721 1079 237 -556
-386 64 450 168 -424 256 1233 2080 1723 1089 244 -544
-386 62 447 161 -418 258 1236 2078 1730 1092 244 -544
-386 63 450 162 -416 255 1233 2060 1731 1096 244 -549
-397 56 452 161 -418 256 1219 2053 1724 1091 239 -553
-397 61 457 171 -424 255 1224 2053 1727 1089 237 -561
-386 75 462 168 -426 260 1221 2048 1727 1091 239 -561
-370 90 462 156 -424 270 1219 2046 1729 1091 244 -551
-359 99 458 140 -416 276 1233 2056 1731 1094 244 -551
-354 96 451 130 -409 278 1233 2048 1731 1108 266 -524
-355 95 452 129 -403 273 1229 2046 1729 1116 276 -517
-359 92 452 130 -404 273 1219 2034 1736 1123 286 -502
-347 97 445 134 -405 273 1207 2014 1727 1116 295 -502
-351 99 450 125 -396 272 1199 1992 1714 1114 290 -507
-349 99 448 127 -401 275 1190 1975 1707 1104 290 -509
-342 106 448 125 -399 273 1185 1968 1700 1107 300 -495
-332 112 445 118 -396 277 1188 1965 1697 1109 305 -497
-318 113 431 111 -388 280 1178 1953 1690 1117 322 -461
-311 112 425 102 -375 272 1163 1941 1683 1117 325 -451
-305 103 409 100 -369 269 1158 1919 1673 1117 334 -436
-302 111 413 101 -358 256 1141 1895 1661 1109 339 -429
-285 118 406 96 -358 262 1122 1870 1641 1102 339 -431
-287 121 411 83 -346 262 1112 1855 1631 1085 337 -434
-283 128 413 83 -349 266 1092 1836 1614 1082 344 -429
-276 132 409 78 -348 272 1090 1824 1602 1082 351 -412
-263 140 406 72 -343 271 1080 1812 1595 1084 361 -395
-250 144 396 61 -335 273 1051 1785 1575 1084 375 -368
-241 148 391 53 -324 271 1051 1763 1566 1075 368 -358
-232 152 386 46 -316 270 1029 1736 1548 1070 388 -346
-222 152 376 40 -309 271 1009 1712 1531 1053 385 -348
-225 155 381 35 -299 266 997 1685 1517 1043 385 -348
-214 156 371 35 -303 270 980 1663 1492 1036 390 -336
-210 165 376 29 -293 265 966 1654 1478 1026 395 -326
-205 170 376 23 -293 272 961 1632 1466 1026 410 -307
-194 173 369 18 -291 275 944 1610 1453 1027 424 -280
-186 173 361 11 -281 272 929 1591 1444 1024 424 -261
-189 168 359 6 -273 267 918 1554 1423 1019 432 -239
-183 167 351 11 -274 265 889 1517 1379 1005 427 -236
-177 170 349 8 -267 261 872 1490 1364 973 414 -248
-180 178 358 3 -263 260 860 1469 1352 956 412 -244
-160 185 346 1 -269 270 838 1451 1332 946 414 -236
-170 188 358 -11 -253 267 840 1437 1320 939 419 -229
-168 182 351 -8 -264 275 828 1417 1305 939 427 -209
-168 184 353 -5 -258 269 813 1400 1291 927 422 -207
-176 182 361 -7 -260 271 813 1381 1284 914 417 -204
-165 185 352 -1 -268 273 801 1361 1266 907 412 -202
-175 178 355 -8 -258 271 777 1327 1244 890 405 -214
-176 183 361 -1 -265 267 777 1308 1227 865 390 -236
-176 185 363 -2 -269 273 767 1291 1210 851 378 -244
-191 174 368 -3 -270 276 762 1284 1196 843 366 -251
-204 165 370 8 -280 272 767 1277 1188 834 361 -248
-210 159 370 20 -286 270 757 1255 1171 829 353 -246
-220 143 366 27 -290 266 752 1240 1162 812 334 -261
-225 139 366 39 -292 255 747 1218 1147 792 319 -273
-230 141 373 44 -295 254 728 1194 1118 775 305 -300
-239 140 380 45 -301 259 728 1179 1113 754 283 -319
-242 140 385 50 -308 262 728 1172 1103 739 268 -329
-245 140 388 51 -313 264 723 1165 1088 732 258 -336
-252 128 383 52 -316 265 733 1157 1076 720 249 -339
-248 127 377 62 -317 256 726 1147 1064 708 236 -341
-259 113 375 61 -312 253 731 1138 1057 698 222 -344
-264 106 373 73 -317 245 733 1123 1049 688 212 -358
-270 102 374 79 -318 241 716 1111 1032 671 205 -368
-273 100 374 84 -322 239 716 1108 1032 656 185 -392
-280 99 379 86 -323 237 716 1104 1027 652 180 -402
-281 100 382 91 -329 241 714 1101 1018 651 175 -409
-275 105 380 91 -331 242 728 1106 1018 649 163 -414
-273 106 379 85 -328 243 726 1096 1013 649 161 -412
-274 96 372 84 -325 244 726 1101 1010 639 151 -407
-282 87 369 89 -323 235 723 1094 1010 634 148 -412
-292 83 376 99 -325 230 719 1079 998 624 144 -417
-285 89 374 105 -334 230 716 1067 986 617 134 -429
-287 93 380 99 -329 233 709 1062 981 600 119 -451
-278 94 372 97 -334 237 709 1050 979 595 114 -456
-265 99 365 92 -324 235 711 1062 969 595 109 -453
-263 106 369 84 -314 233 714 1062 969 594 103 -453
-264 104 369 79 -316 240 711 1062 974 586 101 -453
-273 105 378 80 -317 237 721 1068 976 584 93 -458
-282 99 381 84 -325 242 723 1063 976 584 101 -451
-281 98 378 92 -331 242 715 1056 976 581 98 -453
-286 93 378 92 -330 240 720 1063 976 567 91 -468
-289 98 386 97 -333 237 722 1065 979 579 91 -470
-282 106 388 96 -338 243 732 1068 971 579 91 -468
-285 104 388 89 -335 249 735 1058 974 581 91 -461
-279 105 383 91 -336 248 732 1068 971 581 96 -451
-275 105 379 88 -331 246 730 1068 959 579 93 -448
-280 102 382 85 -328 243 727 1061 964 574 91 -448
-274 99 373 89 -331 243 720 1056 959 569 84 -458
-278 98 375 88 -324 236 722 1063 969 564 71 -478
-284 105 388 90 -327 236 720 1063 971 564 76 -480
-276 109 386 90 -336 247 718 1068 969 564 71 -483
-278 109 386 84 -331 247 730 1078 971 566 71 -483
-275 101 376 85 -331 248 735 1080 976 574 79 -470
-286 89 376 88 -325 240 730 1080 976 579 81 -470
-284 91 376 99 -331 232 737 1075 981 581 86 -466
-285 94 378 96 -330 234 737 1073 979 576 86 -468
-280 94 373 96 -331 237 732 1058 971 570 81 -478
-278 94 371 94 -327 235 727 1065 974 565 57 -492
-288 98 386 92 -324 234 727 1073 976 560 67 -495
-286 99 386 95 -337 242 735 1080 976 567 74 -488
-275 99 376 94 -335 243 735 1078 984 577 81 -475
-283 91 376 88 -326 237 730 1083 982 582 86 -468
-283 88 371 95 -329 234 733 1080 984 582 79 -473
-281 98 379 98 -327 230 737 1083 989 580 81 -461
-291 94 386 91 -330 239 720 1078 982 582 86 -468
-297 94 393 99 -338 241 728 1075 987 582 84 -475
-291 104 395 101 -345 243 728 1073 984 577 81 -480
-284 104 388 94 -343 251 728 1083 984 579 81 -485
-286 101 388 90 -335 247 745 1092 989 584 79 -480
-280 106 388 93 -337 246 742 1092 987 591 88 -463
-286 99 386 87 -334 247 740 1087 984 591 88 -458
-300 88 388 94 -335 243 737 1080 989 591 88 -458
-305 78 383 106 -344 239 718 1070 980 586 91 -458
-316 77 393 113 -344 231 720 1073 977 582 86 -478
-322 84 408 120 -354 236 723 1075 982 582 86 -478
-309 79 390 118 -365 246 720 1078 975 582 84 -488
-296 94 390 115 -350 235 733 1090 977 582 74 -492
-285 100 387 101 -343 243 730 1087 980 585 79 -483
-283 104 388 93 -337 243 733 1087 984 590 84 -470
-287 94 382 90 -335 247 742 1090 997 597 88 -468
-287 99 387 96 -335 239 730 1083 992 604 91 -468
-280 100 381 94 -338 243 723 1083 987 592 86 -480
-291 104 397 90 -332 241 727 1080 987 585 79 -488
-276 115 391 94 -345 251 724 1084 984 583 79 -490
-279 111 392 80 -334 253 729 1086 987 587 81 -483
-268 117 386 84 -337 252 736 1091 992 587 84 -480
-263 118 382 76 -328 252 729 1086 982 592 84 -473
-276 107 383 73 -323 252 729 1084 987 589 83 -475
-291 105 397 84 -330 246 724 1076 980 585 83 -478
-289 109 399 94 -345 252 717 1069 977 577 81 -485
-293 109 402 90 -345 254 722 1074 980 577 76 -497
-291 109 402 93 -348 257 719 1071 977 575 73 -500
-280 121 402 91 -347 256 712 1074 967 575 71 -500
-283 116 399 80 -340 263 727 1084 980 570 64 -497
-284 110 394 84 -340 258 729 1084 982 582 81 -475
-282 102 385 88 -339 252 732 1086 984 587 81 -473
-296 98 394 90 -333 244 732 1081 989 585 86 -470
-291 102 394 100 -345 246 719 1074 989 583 88 -478
-288 109 397 95 -343 248 719 1070 972 576 78 -492
-289 115 404 90 -342 253 719 1067 965 564 76 -500
-287 115 402 88 -347 259 724 1067 962 566 73 -495
-294 107 402 87 -344 258 729 1077 970 566 71 -495
-282 113 397 94 -348 255 732 1075 970 576 81 -480
-283 110 393 84 -339 255 732 1082 977 581 81 -478
-285 105 391 87 -338 251 734 1082 984 581 83 -473
-310 88 398 90 -338 247 722 1070 975 581 88 -468
-317 78 395 111 -354 242 705 1055 962 573 83 -483
-315 74 388 120 -356 236 703 1053 958 559 69 -497
-315 88 402 121 -350 233 695 1055 958 556 61 -505
-307 98 404 113 -358 245 708 1060 955 558 61 -500
-301 89 391 105 -355 251 713 1058 955 561 64 -495
-301 91 393 106 -346 240 708 1058 953 558 64 -490
-302 83 385 105 -347 242 713 1055 958 553 64 -488
-321 79 401 110 -343 234 710 1048 960 556 61 -490
-318 74 393 121 -360 240 698 1041 948 548 56 -497
-311 74 386 123 -355 235 703 1041 945 541 49 -509
-314 82 396 120 -348 231 703 1038 948 539 51 -514
-304 84 388 117 -354 240 698 1043 943 539 49 -507
-306 85 392 111 -346 238 710 1055 950 545 54 -500
-306 77 383 111 -349 239 708 1058 948 554 69 -490
-307 79 387 116 -344 231 710 1058 958 557 64 -485
-310 77 387 115 -348 234 710 1046 953 549 69 -473
-314 74 387 117 -349 233 693 1033 940 545 66 -480
-309 76 384 121 -350 233 695 1031 936 535 51 -502
-318 72 390 117 -347 230 695 1026 931 530 49 -507
-309 82 390 124 -354 233 692 1024 919 525 44 -512
-312 87 400 115 -349 238 704 1036 923 525 39 -512
-314 88 401 113 -357 244 704 1041 931 532 42 -505
-314 87 400 113 -358 245 702 1036 928 534 44 -495
-314 84 397 115 -357 245 699 1034 931 537 47 -488
-306 83 389 116 -355 242 692 1027 928 532 44 -500
-314 80 394 112 -348 236 690 1025 926 525 34 -514
-322 80 402 117 -354 238 694 1027 928 520 32 -512
-318 85 403 122 -363 242 692 1027 926 520 34 -514
-314 87 400 117 -361 245 697 1032 923 517 27 -519
-304 87 390 115 -357 245 707 1039 928 520 29 -519
-309 79 389 110 -347 240 699 1042 933 525 37 -495
-309 73 383 115 -349 235 702 1039 933 525 42 -495
-316 70 386 118 -346 230 694 1027 931 532 44 -485
-317 68 387 123 -352 229 682 1020 921 523 38 -502
-321 65 386 124 -353 229 690 1020 919 516 33 -509
-314 76 390 128 -354 227 690 1022 916 511 30 -517
-310 86 397 120 -352 235 690 1029 911 509 26 -517
-309 87 396 112 -354 242 699 1029 919 513 30 -512
-307 84 392 111 -353 242 699 1029 919 521 35 -497
-314 78 392 112 -350 240 702 1029 916 518 35 -497
-323 73 397 118 -353 238 697 1025 926 516 35 -497
-323 71 395 126 -360 238 683 1025 914 509 35 -505
-320 78 400 127 -359 235 685 1015 911 509 28 -517
-306 93 400 121 -360 240 680 1010 909 508 30 -517
-293 104 397 107 -353 248 680 1017 909 506 11 -529
-289 108 397 95 -346 252 700 1037 919 513 26 -519
-284 106 391 91 -343 255 705 1039 926 528 40 -497
-282 103 385 89 -338 250 705 1044 931 533 48 -492
-290 97 387 90 -333 246 707 1039 943 535 50 -490
-293 90 385 98 -339 244 705 1034 940 542 55 -488
-288 98 387 101 -338 239 695 1032 933 533 48 -502
-290 97 387 95 -337 244 702 1032 932 525 45 -502
-289 104 394 98 -338 244 695 1027 920 525 48 -502
-289 109 398 93 -341 250 695 1027 912 521 45 -502
-292 101 393 90 -343 255 700 1029 912 516 45 -500
-290 99 389 95 -342 248 700 1032 910 516 43 -492
-298 97 394 96 -340 246 697 1029 920 519 40 -488
-300 94 394 101 -346 247 695 1029 922 519 43 -490
-300 93 394 104 -347 246 688 1020 910 514 40 -500
-311 87 397 104 -347 244 692 1022 917 507 30 -519
-311 84 395 112 -354 243 685 1017 917 507 28 -519
-303 89 391 113 -353 240 673 1025 910 509 30 -519
-307 81 389 107 -347 241 691 1032 917 509 30 -517
-310 81 391 113 -348 235 691 1029 917 512 33 -502
-315 76 391 116 -351 238 691 1032 917 521 26 -497
-313 70 383 121 -353 235 691 1020 922 521 35 -495
-311 67 379 122 -348 227 679 1012 910 511 33 -502
-317 65 383 123 -346 224 682 1007 902 501 18 -517
-317 73 391 127 -351 224 682 1013 902 496 18 -519
-315 77 393 123 -354 234 682 1018 905 499 23 -517
-313 79 393 120 -354 235 687 1026 912 506 30 -509
-316 83 401 117 -353 237 684 1028 910 514 38 -500
-313 86 399 117 -359 243 682 1021 902 511 38 -497
-309 82 391 115 -356 244 687 1013 907 506 35 -497
-321 73 396 115 -351 238 677 1008 912 502 28 -505
-316 81 399 124 -359 235 677 1006 905 497 26 -524
-313 77 390 118 -358 240 684 1011 910 495 23 -524
-313 77 390 118 -352 234 674 1011 900 495 26 -522
-320 73 394 118 -352 234 682 1018 893 500 21 -527
-315 77 393 124 -357 235 687 1026 912 500 23 -517
-310 73 384 120 -354 235 684 1028 910 510 28 -505
-313 70 383 120 -347 230 691 1023 910 507 30 -502
-312 69 382 122 -348 227 689 1013 910 502 33 -500
-324 63 390 121 -347 226 683 1011 902 495 26 -512
-323 70 395 130 -357 226 683 1012 903 489 19 -524
-321 76 398 126 -358 233 679 1007 900 489 19 -524
-321 72 395 121 -360 237 677 1010 898 488 13 -534
-319 70 392 124 -357 234 682 1012 895 488 8 -531
-311 77 390 124 -356 231 694 1022 898 490 13 -527
-315 77 395 116 -350 234 699 1024 900 493 15 -514
-315 74 390 118 -355 236 699 1022 903 493 15 -512
-317 62 380 120 -352 232 699 1022 905 498 20 -517
-318 64 384 127 -349 221 696 1012 900 495 20 -517
-317 69 387 126 -351 223 686 1007 893 490 20 -522
-323 70 395 124 -352 228 689 1007 898 483 13 -529
-329 68 400 126 -358 233 684 1005 886 485 15 -527
-327 70 400 130 -364 233 686 1005 881 484 10 -531
-318 75 395 127 -363 234 699 1019 891 484 13 -519
-318 72 392 121 -356 236 699 1022 895 491 20 -512
-316 66 384 123 -355 233 694 1024 905 494 22 -509
-316 62 379 124 -350 225 703 1017 908 499 22 -505
-316 69 386 126 -347 220 694 1007 898 489 22 -517
-322 70 395 123 -351 227 701 1002 893 477 10 -529
-316 75 392 125 -358 232 694 1010 898 477 10 -534
-304 76 381 120 -353 234 694 1014 898 482 13 -527
-312 72 387 113 -342 228 701 1024 903 486 15 -524
-317 69 387 119 -350 229 693 1019 900 496 13 -514
-315 62 378 124 -352 228 695 1019 898 493 25 -519
-316 60 378 126 -346 220 698 1007 900 493 17 -519
-321 66 389 127 -346 220 690 1002 893 486 13 -524
-318 81 400 126 -355 227 685 1005 893 484 13 -531
-323 79 402 118 -360 240 681 997 895 479 13 -534
-319 83 403 121 -363 240 678 1000 883 476 8 -536
-313 88 402 118 -362 244 690 1007 888 479 5 -536
-315 81 396 112 -358 245 690 1012 891 481 15 -519
-315 77 394 116 -356 239 695 1012 898 484 13 -514
-312 71 384 118 -354 236 698 1012 905 486 17 -512
-318 63 381 120 -348 228 690 1002 903 487 20 -509
-326 62 388 127 -349 223 683 995 893 482 15 -519
-326 66 392 131 -356 225 695 1005 895 477 10 -531
-321 72 394 129 -359 229 688 1000 888 477 20 -519
-312 77 391 124 -356 234 690 1002 886 477 17 -524
-313 77 391 116 -351 234 698 1012 893 477 15 -519
-310 72 383 118 -351 236 693 1007 888 485 27 -500
-309 70 378 118 -346 228 693 1010 893 485 25 -502
-309 58 366 119 -343 226 688 1002 893 485 22 -505
-318 71 389 125 -337 214 673 995 886 477 17 -522
-316 70 385 123 -354 231 681 992 888 474 13 -539
-322 79 400 123 -350 229 681 997 888 474 8 -539
-318 85 402 121 -361 240 681 1002 888 477 10 -549
-311 85 395 116 -360 245 691 1011 891 477 5 -531
-311 79 389 113 -352 242 691 1008 886 484 15 -517
-318 70 388 115 -349 234 691 1006 891 489 17 -512
-315 69 383 124 -351 231 693 1003 895 491 15 -509
-298 87 385 123 -348 227 683 1001 893 484 17 -512
-293 97 390 104 -340 237 683 1001 893 479 15 -524
-296 102 398 97 -340 244 691 1003 895 479 15 -529
-302 98 400 97 -345 251 691 1011 893 485 18 -524
-301 96 398 102 -350 250 708 1023 900 490 21 -514
-299 97 398 103 -349 248 703 1028 910 500 31 -502
-293 96 389 101 -348 248 708 1030 913 507 36 -495
-298 102 400 98 -340 243 713 1033 922 510 40 -490
-306 103 410 98 -348 253 710 1033 925 507 45 -490
-308 113 421 102 -358 257 708 1033 920 510 43 -507
-303 119 422 97 -364 267 713 1030 920 505 38 -509
-301 118 420 92 -361 272 715 1034 922 505 36 -517
-294 132 427 92 -360 270 722 1041 922 507 36 -519
-289 141 432 81 -360 281 727 1046 930 512 38 -512
-288 137 426 74 -360 287 722 1048 930 516 36 -505
-289 125 415 75 -356 282 726 1053 944 524 43 -497
-290 124 415 82 -351 271 726 1046 942 531 50 -492
-278 131 410 83 -351 271 714 1038 939 526 48 -497
-275 142 417 74 -343 272 719 1036 937 521 48 -502
-265 144 410 66 -345 281 719 1038 937 526 48 -505
-250 157 407 60 -337 277 719 1053 942 524 50 -500
-231 169 400 47 -328 282 724 1055 947 541 58 -483
-227 175 405 31 -315 285 726 1060 947 546 70 -463
-226 171 399 26 -316 289 731 1068 959 548 79 -451
-228 166 396 27 -312 285 731 1058 964 559 87 -448
-244 155 402 31 -312 281 712 1043 954 559 89 -448
-250 155 407 44 -323 278 699 1036 944 552 77 -463
-261 158 422 48 -328 282 690 1031 939 539 75 -473
-263 153 417 52 -342 289 682 1031 934 537 70 -478
-259 147 407 55 -339 286 692 1041 942 542 70 -475
-258 141 399 57 -333 277 695 1046 944 547 75 -466
-259 135 394 59 -328 271 695 1043 944 549 82 -458
-261 126 389 63 -327 265 697 1038 944 552 79 -461
-259 124 384 68 -326 258 687 1026 939 544 79 -463
-254 124 379 68 -322 254 678 1021 934 539 72 -478
-246 124 370 65 -317 252 687 1029 939 534 60 -483
-246 129 375 62 -308 248 687 1034 937 539 79 -470
-242 123 365 59 -310 253 685 1036 939 541 72 -473
-243 110 354 60 -304 244 690 1036 942 549 77 -461
-255 101 356 66 -299 232 680 1029 930 551 79 -448
-244 99 345 77 -306 228 680 1019 915 541 72 -456
-246 93 339 72 -295 222 676 1009 913 524 65 -468
-250 92 343 76 -293 216 663 993 900 512 53 -480
-260 94 355 80 -297 219 661 986 895 502 40 -490
-272 94 367 83 -308 225 654 983 888 497 36 -495
-265 93 359 90 -320 231 651 986 886 496 31 -497
-278 86 365 86 -311 225 666 991 893 501 31 -497
-277 87 365 97 -321 225 663 993 889 498 33 -485
-288 82 372 96 -320 226 666 986 887 498 31 -488
-308 66 375 103 -330 226 673 983 892 486 28 -495
-314 66 381 121 -341 220 668 981 884 484 18 -497
-324 68 392 124 -347 223 671 974 874 469 14 -524
-326 70 397 129 -357 230 673 971 874 464 4 -536
-321 70 392 129 -360 234 668 971 865 462 -1 -544
-315 72 389 126 -355 231 678 978 872 462 -3 -551
-317 70 389 121 -352 230 680 981 870 471 3 -541
-316 65 382 124 -353 229 680 981 870 474 3 -531
-322 62 383 126 -348 224 685 978 884 471 6 -529
-324 70 393 131 -353 223 677 971 874 471 6 -527
-329 68 398 127 -358 232 672 961 865 459 -1 -541
-323 69 392 131 -364 232 667 959 862 454 -5 -549
-319 74 393 127 -358 230 665 964 860 449 -8 -549
-320 76 397 124 -357 234 670 966 857 457 -8 -539
-314 80 396 123 -359 236 667 974 862 459 -1 -522
-312 79 391 118 -355 237 670 971 860 461 3 -514
-315 70 386 118 -352 235 672 964 862 465 6 -512
-329 66 396 124 -350 229 670 964 865 460 3 -527
-326 63 391 132 -363 231 660 956 857 462 6 -522
-330 62 392 132 -359 226 662 956 860 455 -1 -541
-323 69 392 135 -361 226 677 961 862 453 -8 -546
-323 70 393 127 -358 230 665 969 860 453 -5 -549
-315 75 390 127 -358 232 679 976 862 465 -5 -546
-313 75 387 121 -353 234 677 978 865 467 1 -529
-315 70 385 120 -350 232 677 983 874 462 -1 -529
-323 65 387 124 -350 229 675 978 877 467 6 -519
-318 69 386 130 -355 227 670 971 872 470 6 -524
-313 76 388 125 -353 227 665 966 867 462 -1 -539
-320 77 397 119 -352 232 665 966 872 460 -1 -539
-298 91 388 123 -359 238 662 978 877 455 6 -536
-286 91 376 103 -343 240 672 991 882 477 11 -534
-292 88 380 97 -331 234 663 993 890 486 23 -519
-286 93 379 102 -336 235 658 1003 895 491 30 -509
-284 87 370 96 -332 236 663 1013 910 501 42 -492
-263 91 353 98 -326 230 660 1035 924 508 55 -485
-253 83 336 86 -308 223 653 1069 944 521 67 -485
-237 96 332 85 -295 210 663 1117 980 535 74 -483
-225 127 352 70 -285 214 668 1166 1010 561 94 -470
-209 153 363 48 -288 240 680 1192 1046 585 116 -458
-207 169 375 28 -286 258 675 1189 1071 624 142 -429
-201 197 397 19 -291 273 651 1101 1071 661 177 -397
-180 227 407 2 -298 297 624 926 995 673 199 -375
-163 264 426 -23 -293 317 575 704 880 641 196 -353
-143 303 446 -50 -295 345 502 523 780 578 179 -344
-132 340 471 -79 -295 374 433 350 680 534 172 -324
-94 395 490 -102 -301 406 353 147 553 483 186 -295
-58 440 497 -148 -290 442 253 -59 409 414 169 -268
-25 468 492 -190 -276 468 158 -225 305 341 152 -241
12 476 463 -220 -257 480 48 -391 202 297 169 -190
51 480 428 -244 -223 469 -71 -574 68 258 186 -146
91 495 402 -264 -185 455 -207 -784 -104 180 179 -109
125 501 373 -292 -152 448 -368 -994 -280 70 167 -78
156 504 347 -312 -120 437 -513 -1174 -436 -34 142 -51
180 510 329 -329 -92 427 -626 -1330 -580 -127 138 -12
191 498 304 -345 -71 419 -731 -1471 -724 -222 135 29
200 497 297 -344 -53 402 -821 -1605 -866 -320 118 68
203 497 292 -348 -46 397 -923 -1754 -1022 -425 84 97
211 486 275 -350 -41 396 -999 -1873 -1154 -552 28 102
214 470 255 -348 -29 381 -1057 -2000 -1298 -680 -31 109
236 456 219 -342 -18 363 -1123 -2137 -1444 -819 -95 107
263 448 185 -346 10 337 -1194 -2257 -1590 -958 -153 124
291 450 158 -356 41 317 -1240 -2330 -1698 -1090 -202 139
308 442 133 -370 68 305 -1284 -2366 -1781 -1200 -239 173
310 439 128 -375 89 289 -1294 -2381 -1834 -1278 -263 207
305 434 128 -374 92 284 -1316 -2400 -1891 -1331 -268 258
321 446 124 -369 90 281 -1323 -2403 -1934 -1405 -295 292
318 453 135 -383 100 286 -1314 -2381 -1949 -1473 -336 309
297 470 173 -385 92 295 -1289 -2315 -1930 -1531 -380 322
289 475 186 -383 63 323 -1248 -2237 -1893 -1561 -417 324
284 466 181 -381 52 331 -1197 -2159 -1849 -1583 -458 322
290 445 154 -374 52 324 -1155 -2086 -1815 -1595 -505 329
281 414 132 -367 68 301 -1116 -2015 -1776 -1607 -549 334
273 374 101 -347 75 274 -1060 -1917 -1703 -1612 -585 334
264 337 73 -323 86 239 -1011 -1830 -1656 -1586 -592 351
269 296 26 -300 97 207 -957 -1737 -1588 -1556 -605 363
250 258 8 -281 123 163 -911 -1659 -1529 -1520 -602 370
231 229 -2 -253 122 134 -874 -1581 -1468 -1490 -600 373
209 204 -4 -230 117 113 -818 -1490 -1393 -1444 -583 380
209 172 -37 -207 107 100 -762 -1400 -1324 -1394 -553 392
215 145 -70 -191 123 67 -706 -1293 -1241 -1343 -536 402
207 112 -95 -180 143 37 -640 -1176 -1154 -1270 -502 419
200 92 -106 -159 151 8 -586 -1071 -1054 -1199 -473 436
190 78 -111 -146 153 -6 -525 -954 -956 -1126 -439 453
187 81 -106 -134 151 -15 -457 -829 -839 -1036 -395 456
186 87 -96 -135 146 -12 -391 -701 -717 -943 -339 463
170 87 -81 -136 141 -3 -330 -572 -588 -838 -285 463
153 96 -56 -129 125 2 -247 -421 -453 -718 -217 470
159 107 -51 -124 104 20 -174 -272 -319 -589 -141 475
155 109 -45 -132 104 28 -101 -130 -195 -477 -87 466
135 104 -29 -132 100 31 -30 -1 -73 -367 -41 453
105 97 -8 -119 81 37 33 110 24 -267 14 466
71 95 23 -101 56 45 99 213 124 -180 41 446
38 97 58 -81 24 61 162 323 222 -106 63 409
-1 100 101 -67 -9 79 228 420 314 -38 75 334
-47 95 142 -48 -50 102 299 513 405 29 75 253
-92 102 195 -22 -94 120 361 608 486 98 78 183
-119 98 219 -4 -144 150 425 698 562 154 70 104
-149 86 236 9 -169 159 490 784 635 212 61 19
-168 81 251 30 -192 162 544 852 698 264 58 -46
-183 84 268 42 -210 167 586 903 750 311 46 -126
-211 79 290 49 -225 176 622 952 798 345 34 -192
-234 76 312 66 -250 186 649 1001 845 377 31 -251
-251 70 322 78 -273 195 686 1052 891 413 34 -309
-268 73 341 90 -286 197 720 1101 937 455 51 -341
-291 65 356 97 -305 208 751 1152 977 492 58 -373
-308 63 371 112 -324 212 793 1208 1033 535 73 -397
-306 66 372 122 -340 218 830 1255 1062 577 92 -407
-311 60 371 119 -339 222 847 1277 1086 609 104 -422
-316 55 371 124 -341 217 864 1291 1106 623 104 -439
-329 51 382 129 -344 214 864 1299 1120 633 106 -458
-335 47 383 138 -356 218 861 1308 1125 637 99 -473
-340 53 394 142 -360 217 876 1321 1135 635 92 -495
-336 52 389 142 -367 225 883 1325 1138 642 89 -505
-329 63 394 141 -363 222 886 1340 1142 650 89 -514
-335 66 401 131 -362 229 893 1357 1157 657 87 -514
-333 64 398 134 -368 235 898 1362 1164 672 92 -505
-333 56 389 133 -366 232 915 1379 1179 677 94 -512
-338 52 390 138 -361 224 911 1374 1184 686 102 -512
-347 50 398 141 -365 222 903 1382 1181 686 99 -522
-356 56 414 147 -373 224 911 1386 1186 681 94 -534
-354 56 411 149 -385 235 913 1396 1191 682 92 -536
-353 61 416 147 -383 234 915 1411 1194 690 92 -541
-349 62 412 145 -385 239 930 1428 1211 702 99 -534
-350 55 406 142 -382 238 930 1433 1208 719 111 -519
-349 49 399 147 -379 232 932 1438 1223 721 114 -519
-348 49 399 150 -374 225 935 1435 1228 721 114 -514
-355 45 401 149 -374 224 930 1433 1218 714 106 -531
-355 46 404 155 -378 224 930 1440 1221 704 97 -549
-357 50 409 153 -379 225 937 1443 1223 709 97 -549
-354 56 411 153 -383 230 935 1457 1230 709 99 -551
-359 51 411 149 -382 235 950 1473 1240 726 102 -546
-355 47 404 153 -384 233 957 1487 1252 736 114 -529
-355 45 401 153 -379 227 959 1492 1260 750 121 -522
-364 40 405 155 -378 224 972 1497 1272 750 121 -529
-364 40 405 161 -384 223 969 1502 1274 755 124 -531
-351 39 392 161 -384 223 969 1502 1272 753 119 -546
-353 46 401 156 -371 216 974 1509 1277 750 119 -553
-353 50 404 152 -377 223 974 1514 1277 753 116 -556
-344 49 394 151 -378 227 978 1534 1284 755 116 -558
-343 51 396 147 -368 222 988 1553 1299 765 119 -544
-346 52 400 145 -370 223 983 1558 1301 776 128 -536
-354 42 398 146 -373 226 988 1561 1311 783 128 -536
-364 41 406 155 -376 220 988 1563 1311 790 131 -539
-367 41 411 161 -383 224 983 1563 1311 781 124 -551
-367 50 417 162 -388 226 990 1578 1321 776 116 -551
-361 66 427 158 -392 234 995 1586 1323 781 119 -563
-351 66 417 147 -393 248 995 1603 1330 788 121 -561
-354 62 416 142 -383 243 1012 1623 1343 795 126 -556
-351 56 408 145 -384 239 1014 1640 1360 812 138 -541
-351 41 393 147 -378 233 1022 1647 1367 827 148 -529
-354 41 395 155 -371 218 1029 1652 1369 832 155 -527
-348 46 395 156 -373 220 1019 1654 1377 831 155 -534
-356 42 399 150 -371 221 1027 1667 1384 826 145 -546
-359 47 406 156 -377 221 1032 1681 1391 831 145 -549
-353 58 413 155 -382 227 1027 1693 1396 841 155 -546
-345 56 403 146 -382 235 1053 1715 1416 851 155 -549
-346 57 404 144 -373 229 1061 1737 1433 861 167 -529
-356 47 404 144 -375 231 1061 1750 1445 878 177 -524
-360 36 398 153 -380 226 1068 1759 1460 887 177 -529
-359 41 400 161 -378 217 1066 1767 1467 892 180 -531
-354 46 400 158 -378 222 1069 1764 1457 892 180 -544
-364 44 408 153 -376 224 1083 1781 1467 888 173 -556
-364 47 411 160 -384 227 1086 1801 1479 898 176 -553
-354 50 404 157 -387 229 1098 1828 1494 906 176 -551
-357 50 408 151 -378 227 1112 1845 1511 920 183 -546
-344 53 398 153 -382 229 1112 1857 1516 937 193 -531
-361 47 409 145 -370 227 1120 1869 1530 937 193 -531
-365 42 408 156 -384 228 1122 1874 1540 947 198 -527
-371 44 415 161 -386 226 1120 1879 1547 949 200 -536
-353 63 417 163 -392 231 1122 1894 1557 949 193 -556
-357 67 425 144 -384 240 1130 1906 1565 954 195 -553
-355 75 432 145 -391 246 1139 1928 1572 961 190 -556
-345 78 424 139 -393 254 1161 1952 1591 976 198 -549
-368 62 430 133 -384 251 1171 1967 1604 993 212 -529
-376 49 424 152 -399 246 1176 1981 1621 998 212 -534
-378 45 423 163 -399 238 1176 1977 1623 1005 215 -529
-382 45 427 166 -400 234 1171 1977 1621 998 210 -544
-381 49 431 168 -405 237 1176 1982 1626 998 205 -561
-382 51 433 166 -406 240 1178 1992 1630 1000 203 -558
-373 61 436 166 -408 244 1181 2007 1650 1003 205 -563
-366 63 431 156 -405 249 1195 2026 1652 1020 207 -558
-377 63 441 151 -399 248 1198 2031 1665 1032 222 -544
-386 55 441 157 -409 253 1199 2041 1669 1045 234 -531
-388 56 446 166 -414 248 1214 2043 1682 1055 237 -536
-388 51 441 166 -417 250 1209 2046 1687 1053 237 -536
-393 50 442 168 -415 245 1207 2041 1687 1055 239 -549
-394 51 445 172 -419 247 1216 2053 1694 1050 229 -563
-387 56 442 172 -420 249 1221 2063 1704 1055 229 -568
-382 60 441 166 -415 250 1231 2075 1713 1067 232 -563
-394 58 452 161 -413 250 1238 2085 1721 1079 237 -556
-386 64 450 168 -424 256 1233 2080 1723 1089 244 -544
-386 62 447 161 -418 258 1236 2078 1730 1092 244 -544
-386 63 450 162 -416 255 1233 2060 1731 1096 244 -549
-397 56 452 161 -418 256 1219 2053 1724 1091 239 -553
-397 61 457 171 -424 255 1224 2053 1727 1089 237 -561
-386 75 462 168 -426 260 1221 2048 1727 1091 239 -561
-370 90 462 156 -424 270 1219 2046 1729 1091 244 -551
-359 99 458 140 -416 276 1233 2056 1731 1094 244 -551
-354 96 451 130 -409 278 1233 2048 1731 1108 266 -524
-355 95 452 129 -403 273 1229 2046 1729 1116 276 -517
-359 92 452 130 -404 273 1219 2034 1736 1123 286 -502
-347 97 445 134 -405 273 1207 2014 1727 1116 295 -502
-351 99 450 125 -396 272 1199 1992 1714 1114 290 -507
-349 99 448 127 -401 275 1190 1975 1707 1104 290 -509
-342 106 448 125 -399 273 1185 1968 1700 1107 300 -495
-332 112 445 118 -396 277 1188 1965 1697 1109 305 -497
-318 113 431 111 -388 280 1178 1953 1690 1117 322 -461
-311 112 425 102 -375 272 1163 1941 1683 1117 325 -451
-305 103 409 100 -369 269 1158 1919 1673 1117 334 -436
-302 111 413 101 -358 256 1141 1895 1661 1109 339 -429
-285 118 406 96 -358 262 1122 1870 1641 1102 339 -431
-287 121 411 83 -346 262 1112 1855 1631 1085 337 -434
-283 128 413 83 -349 266 1092 1836 1614 1082 344 -429
-276 132 409 78 -348 272 1090 1824 1602 1082 351 -412
-263 140 406 72 -343 271 1080 1812 1595 1084 361 -395
-250 144 396 61 -335 273 1051 1785 1575 1084 375 -368
-241 148 391 53 -324 271 1051 1763 1566 1075 368 -358
-232 152 386 46 -316 270 1029 1736 1548 1070 388 -346
-222 152 376 40 -309 271 1009 1712 1531 1053 385 -348
-225 155 381 35 -299 266 997 1685 1517 1043 385 -348
-214 156 371 35 -303 270 980 1663 1492 1036 390 -336
-210 165 376 29 -293 265 966 1654 1478 1026 395 -326
-205 170 376 23 -293 272 961 1632 1466 1026 410 -307
-194 173 369 18 -291 275 944 1610 1453 1027 424 -280
-186 173 361 11 -281 272 929 1591 1444 1024 424 -261
-189 168 359 6 -273 267 918 1554 1423 1019 432 -239
-183 167 351 11 -274 265 889 1517 1379 1005 427 -236
-177 170 349 8 -267 261 872 1490 1364 973 414 -248
-180 178 358 3 -263 260 860 1469 1352 956 412 -244
-160 185 346 1 -269 270 838 1451 1332 946 414 -236
-170 188 358 -11 -253 267 840 1437 1320 939 419 -229
-168 182 351 -8 -264 275 828 1417 1305 939 427 -209
-168 184 353 -5 -258 269 813 1400 1291 927 422 -207
-176 182 361 -7 -260 271 813 1381 1284 914 417 -204
-165 185 352 -1 -268 273 801 1361 1266 907 412 -202
-175 178 355 -8 -258 271 777 1327 1244 890 405 -214
-176 183 361 -1 -265 267 777 1308 1227 865 390 -236
-176 185 363 -2 -269 273 767 1291 1210 851 378 -244
-191 174 368 -3 -270 276 762 1284 1196 843 366 -251
-204 165 370 8 -280 272 767 1277 1188 834 361 -248
-210 159 370 20 -286 270 757 1255 1171 829 353 -246
-220 143 366 27 -290 266 752 1240 1162 812 334 -261
-225 139 366 39 -292 255 747 1218 1147 792 319 -273
-230 141 373 44 -295 254 728 1194 1118 775 305 -300
-239 140 380 45 -301 259 728 1179 1113 754 283 -319
-242 140 385 50 -308 262 728 1172 1103 739 268 -329
-245 140 388 51 -313 264 723 1165 1088 732 258 -336
-252 128 383 52 -316 265 733 1157 1076 720 249 -339
-248 127 377 62 -317 256 726 1147 1064 708 236 -341
-259 113 375 61 -312 253 731 1138 1057 698 222 -344
-264 106 373 73 -317 245 733 1123 1049 688 212 -358
-270 102 374 79 -318 241 716 1111 1032 671 205 -368
-273 100 374 84 -322 239 716 1108 1032 656 185 -392
-280 99 379 86 -323 237 716 1104 1027 652 180 -402
-281 100 382 91 -329 241 714 1101 1018 651 175 -409
-275 105 380 91 -331 242 728 1106 1018 649 163 -414
-273 106 379 85 -328 243 726 1096 1013 649 161 -412
-274 96 372 84 -325 244 726 1101 1010 639 151 -407
-282 87 369 89 -323 235 723 1094 1010 634 148 -412
-292 83 376 99 -325 230 719 1079 998 624 144 -417
-285 89 374 105 -334 230 716 1067 986 617 134 -429
-287 93 380 99 -329 233 709 1062 981 600 119 -451
-278 94 372 97 -334 237 709 1050 979 595 114 -456
-265 99 365 92 -324 235 711 1062 969 595 109 -453
-263 106 369 84 -314 233 714 1062 969 594 103 -453
-264 104 369 79 -316 240 711 1062 974 586 101 -453
-273 105 378 80 -317 237 721 1068 976 584 93 -458
-282 99 381 84 -325 242 723 1063 976 584 101 -451
-281 98 378 92 -331 242 715 1056 976 581 98 -453
-286 93 378 92 -330 240 720 1063 976 567 91 -468
-289 98 386 97 -333 237 722 1065 979 579 91 -470
-282 106 388 96 -338 243 732 1068 971 579 91 -468
-285 104 388 89 -335 249 735 1058 974 581 91 -461
-279 105 383 91 -336 248 732 1068 971 581 96 -451
-275 105 379 88 -331 246 730 1068 959 579 93 -448
-280 102 382 85 -328 243 727 1061 964 574 91 -448
-274 99 373 89 -331 243 720 1056 959 569 84 -458
-278 98 375 88 -324 236 722 1063 969 564 71 -478
-284 105 388 90 -327 236 720 1063 971 564 76 -480
-276 109 386 90 -336 247 718 1068 969 564 71 -483
-278 109 386 84 -331 247 730 1078 971 566 71 -483
-275 101 376 85 -331 248 735 1080 976 574 79 -470
-286 89 376 88 -325 240 730 1080 976 579 81 -470
-284 91 376 99 -331 232 737 1075 981 581 86 -466
-285 94 378 96 -330 234 737 1073 979 576 86 -468
-280 94 373 96 -331 237 732 1058 971 570 81 -478
-278 94 371 94 -327 235 727 1065 974 565 57 -492
-288 98 386 92 -324 234 727 1073 976 560 67 -495
-286 99 386 95 -337 242 735 1080 976 567 74 -488
-275 99 376 94 -335 243 735 1078 984 577 81 -475
-283 91 376 88 -326 237 730 1083 982 582 86 -468
-283 88 371 95 -329 234 733 1080 984 582 79 -473
-281 98 379 98 -327 230 737 1083 989 580 81 -461
-291 94 386 91 -330 239 720 1078 982 582 86 -468
-297 94 393 99 -338 241 728 1075 987 582 84 -475
-291 104 395 101 -345 243 728 1073 984 577 81 -480
-284 104 388 94 -343 251 728 1083 984 579 81 -485
-286 101 388 90 -335 247 745 1092 989 584 79 -480
-280 106 388 93 -337 246 742 1092 987 591 88 -463
-286 99 386 87 -334 247 740 1087 984 591 88 -458
-300 88 388 94 -335 243 737 1080 989 591 88 -458
-305 78 383 106 -344 239 718 1070 980 586 91 -458
-316 77 393 113 -344 231 720 1073 977 582 86 -478
-322 84 408 120 -354 236 723 1075 982 582 86 -478
-309 79 390 118 -365 246 720 1078 975 582 84 -488
-296 94 390 115 -350 235 733 1090 977 582 74 -492
-285 100 387 101 -343 243 730 1087 980 585 79 -483
-283 104 388 93 -337 243 733 1087 984 590 84 -470
-287 94 382 90 -335 247 742 1090 997 597 88 -468
-287 99 387 96 -335 239 730 1083 992 604 91 -468
-280 100 381 94 -338 243 723 1083 987 592 86 -480
-291 104 397 90 -332 241 727 1080 987 585 79 -488
-276 115 391 94 -345 251 724 1084 984 583 79 -490
-279 111 392 80 -334 253 729 1086 987 587 81 -483
-268 117 386 84 -337 252 736 1091 992 587 84 -480
-263 118 382 76 -328 252 729 1086 982 592 84 -473
-276 107 383 73 -323 252 729 1084 987 589 83 -475
-291 105 397 84 -330 246 724 1076 980 585 83 -478
-289 109 399 94 -345 252 717 1069 977 577 81 -485
-293 109 402 90 -345 254 722 1074 980 577 76 -497
-291 109 402 93 -348 257 719 1071 977 575 73 -500
-280 121 402 91 -347 256 712 1074 967 575 71 -500
-283 116 399 80 -340 263 727 1084 980 570 64 -497
-284 110 394 84 -340 258 729 1084 982 582 81 -475
-282 102 385 88 -339 252 732 1086 984 587 81 -473
-296 98 394 90 -333 244 732 1081 989 585 86 -470
-291 102 394 100 -345 246 719 1074 989 583 88 -478
-288 109 397 95 -343 248 719 1070 972 576 78 -492
-289 115 404 90 -342 253 719 1067 965 564 76 -500
-287 115 402 88 -347 259 724 1067 962 566 73 -495
-294 107 402 87 -344 258 729 1077 970 566 71 -495
-282 113 397 94 -348 255 732 1075 970 576 81 -480
-283 110 393 84 -339 255 732 1082 977 581 81 -478
-285 105 391 87 -338 251 734 1082 984 581 83 -473
-310 88 398 90 -338 247 722 1070 975 581 88 -468
-317 78 395 111 -354 242 705 1055 962 573 83 -483
-315 74 388 120 -356 236 703 1053 958 559 69 -497
-315 88 402 121 -350 233 695 1055 958 556 61 -505
-307 98 404 113 -358 245 708 1060 955 558 61 -500
-301 89 391 105 -355 251 713 1058 955 561 64 -495
-301 91 393 106 -346 240 708 1058 953 558 64 -490
-302 83 385 105 -347 242 713 1055 958 553 64 -488
-321 79 401 110 -343 234 710 1048 960 556 61 -490
-318 74 393 121 -360 240 698 1041 948 548 56 -497
-311 74 386 123 -355 235 703 1041 945 541 49 -509
-314 82 396 120 -348 231 703 1038 948 539 51 -514
-304 84 388 117 -354 240 698 1043 943 539 49 -507
-306 85 392 111 -346 238 710 1055 950 545 54 -500
-306 77 383 111 -349 239 708 1058 948 554 69 -490
-307 79 387 116 -344 231 710 1058 958 557 64 -485
-310 77 387 115 -348 234 710 1046 953 549 69 -473
-314 74 387 117 -349 233 693 1033 940 545 66 -480
-309 76 384 121 -350 233 695 1031 936 535 51 -502
-318 72 390 117 -347 230 695 1026 931 530 49 -507
-309 82 390 124 -354 233 692 1024 919 525 44 -512
-312 87 400 115 -349 238 704 1036 923 525 39 -512
-314 88 401 113 -357 244 704 1041 931 532 42 -505
-314 87 400 113 -358 245 702 1036 928 534 44 -495
-314 84 397 115 -357 245 699 1034 931 537 47 -488
-306 83 389 116 -355 242 692 1027 928 532 44 -500
-314 80 394 112 -348 236 690 1025 926 525 34 -514
-322 80 402 117 -354 238 694 1027 928 520 32 -512
-318 85 403 122 -363 242 692 1027 926 520 34 -514
-314 87 400 117 -361 245 697 1032 923 517 27 -519
-304 87 390 115 -357 245 707 1039 928 520 29 -519
-309 79 389 110 -347 240 699 1042 933 525 37 -495
-309 73 383 115 -349 235 702 1039 933 525 42 -495
-316 70 386 118 -346 230 694 1027 931 532 44 -485
-317 68 387 123 -352 229 682 1020 921 523 38 -502
-321 65 386 124 -353 229 690 1020 919 516 33 -509
-314 76 390 128 -354 227 690 1022 916 511 30 -517
-310 86 397 120 -352 235 690 1029 911 509 26 -517
-309 87 396 112 -354 242 699 1029 919 513 30 -512
-307 84 392 111 -353 242 699 1029 919 521 35 -497
-314 78 392 112 -350 240 702 1029 916 518 35 -497
-323 73 397 118 -353 238 697 1025 926 516 35 -497
-323 71 395 126 -360 238 683 1025 914 509 35 -505
-320 78 400 127 -359 235 685 1015 911 509 28 -517
-306 93 400 121 -360 240 680 1010 909 508 30 -517
-293 104 397 107 -353 248 680 1017 909 506 11 -529
-289 108 397 95 -346 252 700 1037 919 513 26 -519
-284 106 391 91 -343 255 705 1039 926 528 40 -497
-282 103 385 89 -338 250 705 1044 931 533 48 -492
-290 97 387 90 -333 246 707 1039 943 535 50 -490
-293 90 385 98 -339 244 705 1034 940 542 55 -488
-288 98 387 101 -338 239 695 1032 933 533 48 -502
-290 97 387 95 -337 244 702 1032 932 525 45 -502
-289 104 394 98 -338 244 695 1027 920 525 48 -502
-289 109 398 93 -341 250 695 1027 912 521 45 -502
-292 101 393 90 -343 255 700 1029 912 516 45 -500
-290 99 389 95 -342 248 700 1032 910 516 43 -492
-298 97 394 96 -340 246 697 1029 920 519 40 -488
-300 94 394 101 -346 247 695 1029 922 519 43 -490
-300 93 394 104 -347 246 688 1020 910 514 40 -500
-311 87 397 104 -347 244 692 1022 917 507 30 -519
-311 84 395 112 -354 243 685 1017 917 507 28 -519
-303 89 391 113 -353 240 673 1025 910 509 30 -519
-307 81 389 107 -347 241 691 1032 917 509 30 -517
-310 81 391 113 -348 235 691 1029 917 512 33 -502
-315 76 391 116 -351 238 691 1032 917 521 26 -497
-313 70 383 121 -353 235 691 1020 922 521 35 -495
-311 67 379 122 -348 227 679 1012 910 511 33 -502
-317 65 383 123 -346 224 682 1007 902 501 18 -517
-317 73 391 127 -351 224 682 1013 902 496 18 -519
-315 77 393 123 -354 234 682 1018 905 499 23 -517
-313 79 393 120 -354 235 687 1026 912 506 30 -509
-316 83 401 117 -353 237 684 1028 910 514 38 -500
-313 86 399 117 -359 243 682 1021 902 511 38 -497
-309 82 391 115 -356 244 687 1013 907 506 35 -497
-321 73 396 115 -351 238 677 1008 912 502 28 -505
-316 81 399 124 -359 235 677 1006 905 497 26 -524
-313 77 390 118 -358 240 684 1011 910 495 23 -524
-313 77 390 118 -352 234 674 1011 900 495 26 -522
-320 73 394 118 -352 234 682 1018 893 500 21 -527
-315 77 393 124 -357 235 687 1026 912 500 23 -517
-310 73 384 120 -354 235 684 1028 910 510 28 -505
-313 70 383 120 -347 230 691 1023 910 507 30 -502
-312 69 382 122 -348 227 689 1013 910 502 33 -500
-324 63 390 121 -347 226 683 1011 902 495 26 -512
-323 70 395 130 -357 226 683 1012 903 489 19 -524
-321 76 398 126 -358 233 679 1007 900 489 19 -524
-321 72 395 121 -360 237 677 1010 898 488 13 -534
-319 70 392 124 -357 234 682 1012 895 488 8 -531
-311 77 390 124 -356 231 694 1022 898 490 13 -527
-315 77 395 116 -350 234 699 1024 900 493 15 -514
-315 74 390 118 -355 236 699 1022 903 493 15 -512
-317 62 380 120 -352 232 699 1022 905 498 20 -517
-318 64 384 127 -349 221 696 1012 900 495 20 -517
-317 69 387 126 -351 223 686 1007 893 490 20 -522
-323 70 395 124 -352 228 689 1007 898 483 13 -529
-329 68 400 126 -358 233 684 1005 886 485 15 -527
-327 70 400 130 -364 233 686 1005 881 484 10 -531
-318 75 395 127 -363 234 699 1019 891 484 13 -519
-318 72 392 121 -356 236 699 1022 895 491 20 -512
-316 66 384 123 -355 233 694 1024 905 494 22 -509
-316 62 379 124 -350 225 703 1017 908 499 22 -505
-316 69 386 126 -347 220 694 1007 898 489 22 -517
-322 70 395 123 -351 227 701 1002 893 477 10 -529
-316 75 392 125 -358 232 694 1010 898 477 10 -534
-304 76 381 120 -353 234 694 1014 898 482 13 -527
-312 72 387 113 -342 228 701 1024 903 486 15 -524
-317 69 387 119 -350 229 693 1019 900 496 13 -514
-315 62 378 124 -352 228 695 1019 898 493 25 -519
-316 60 378 126 -346 220 698 1007 900 493 17 -519
-321 66 389 127 -346 220 690 1002 893 486 13 -524
-318 81 400 126 -355 227 685 1005 893 484 13 -531
-323 79 402 118 -360 240 681 997 895 479 13 -534
-319 83 403 121 -363 240 678 1000 883 476 8 -536
-313 88 402 118 -362 244 690 1007 888 479 5 -536
-315 81 396 112 -358 245 690 1012 891 481 15 -519
-315 77 394 116 -356 239 695 1012 898 484 13 -514
-312 71 384 118 -354 236 698 1012 905 486 17 -512
-318 63 381 120 -348 228 690 1002 903 487 20 -509
-326 62 388 127 -349 223 683 995 893 482 15 -519
-326 66 392 131 -356 225 695 1005 895 477 10 -531
-321 72 394 129 -359 229 688 1000 888 477 20 -519
-312 77 391 124 -356 234 690 1002 886 477 17 -524
-313 77 391 116 -351 234 698 1012 893 477 15 -519
-310 72 383 118 -351 236 693 1007 888 485 27 -500
-309 70 378 118 -346 228 693 1010 893 485 25 -502
-309 58 366 119 -343 226 688 1002 893 485 22 -505
-318 71 389 125 -337 214 673 995 886 477 17 -522
-316 70 385 123 -354 231 681 992 888 474 13 -539
-322 79 400 123 -350 229 681 997 888 474 8 -539
-318 85 402 121 -361 240 681 1002 888 477 10 -549
-311 85 395 116 -360 245 691 1011 891 477 5 -531
-311 79 389 113 -352 242 691 1008 886 484 15 -517
-318 70 388 115 -349 234 691 1006 891 489 17 -512
-315 69 383 124 -351 231 693 1003 895 491 15 -509
-298 87 385 123 -348 227 683 1001 893 484 17 -512
-293 97 390 104 -340 237 683 1001 893 479 15 -524
-296 102 398 97 -340 244 691 1003 895 479 15 -529
-302 98 400 97 -345 251 691 1011 893 485 18 -524
-301 96 398 102 -350 250 708 1023 900 490 21 -514
-299 97 398 103 -349 248 703 1028 910 500 31 -502
-293 96 389 101 -348 248 708 1030 913 507 36 -495
-298 102 400 98 -340 243 713 1033 922 510 40 -490
-306 103 410 98 -348 253 710 1033 925 507 45 -490
-308 113 421 102 -358 257 708 1033 920 510 43 -507
-303 119 422 97 -364 267 713 1030 920 505 38 -509
-301 118 420 92 -361 272 715 1034 922 505 36 -517
-294 132 427 92 -360 270 722 1041 922 507 36 -519
-289 141 432 81 -360 281 727 1046 930 512 38 -512
-288 137 426 74 -360 287 722 1048 930 516 36 -505
-289 125 415 75 -356 282 726 1053 944 524 43 -497
-290 124 415 82 -351 271 726 1046 942 531 50 -492
-278 131 410 83 -351 271 714 1038 939 526 48 -497
-275 142 417 74 -343 272 719 1036 937 521 48 -502
-265 144 410 66 -345 281 719 1038 937 526 48 -505
-250 157 407 60 -337 277 719 1053 942 524 50 -500
-231 169 400 47 -328 282 724 1055 947 541 58 -483
-227 175 405 31 -315 285 726 1060 947 546 70 -463
-226 171 399 26 -316 289 731 1068 959 548 79 -451
-228 166 396 27 -312 285 731 1058 964 559 87 -448
-244 155 402 31 -312 281 712 1043 954 559 89 -448
-250 155 407 44 -323 278 699 1036 944 552 77 -463
-261 158 422 48 -328 282 690 1031 939 539 75 -473
-263 153 417 52 -342 289 682 1031 934 537 70 -478
-259 147 407 55 -339 286 692 1041 942 542 70 -475
-258 141 399 57 -333 277 695 1046 944 547 75 -466
-259 135 394 59 -328 271 695 1043 944 549 82 -458
-261 126 389 63 -327 265 697 1038 944 552 79 -461
-259 124 384 68 -326 258 687 1026 939 544 79 -463
-254 124 379 68 -322 254 678 1021 934 539 72 -478
-246 124 370 65 -317 252 687 1029 939 534 60 -483
-246 129 375 62 -308 248 687 1034 937 539 79 -470
-242 123 365 59 -310 253 685 1036 939 541 72 -473
-243 110 354 60 -304 244 690 1036 942 549 77 -461
-255 101 356 66 -299 232 680 1029 930 551 79 -448
-244 99 345 77 -306 228 680 1019 915 541 72 -456
-246 93 339 72 -295 222 676 1009 913 524 65 -468
-250 92 343 76 -293 216 663 993 900 512 53 -480
-260 94 355 80 -297 219 661 986 895 502 40 -490
-272 94 367 83 -308 225 654 983 888 497 36 -495
-265 93 359 90 -320 231 651 986 886 496 31 -497
-278 86 365 86 -311 225 666 991 893 501 31 -497
-277 87 365 97 -321 225 663 993 889 498 33 -485
-288 82 372 96 -320 226 666 986 887 498 31 -488
-308 66 375 103 -330 226 673 983 892 486 28 -495
-314 66 381 121 -341 220 668 981 884 484 18 -497
-324 68 392 124 -347 223 671 974 874 469 14 -524
-326 70 397 129 -357 230 673 971 874 464 4 -536
-321 70 392 129 -360 234 668 971 865 462 -1 -544
-315 72 389 126 -355 231 678 978 872 462 -3 -551
-317 70 389 121 -352 230 680 981 870 471 3 -541
-316 65 382 124 -353 229 680 981 870 474 3 -531
-322 62 383 126 -348 224 685 978 884 471 6 -529
-324 70 393 131 -353 223 677 971 874 471 6 -527
-329 68 398 127 -358 232 672 961 865 459 -1 -541
-323 69 392 131 -364 232 667 959 862 454 -5 -549
-319 74 393 127 -358 230 665 964 860 449 -8 -549
-320 76 397 124 -357 234 670 966 857 457 -8 -539
-314 80 396 123 -359 236 667 974 862 459 -1 -522
-312 79 391 118 -355 237 670 971 860 461 3 -514
-315 70 386 118 -352 235 672 964 862 465 6 -512
-329 66 396 124 -350 229 670 964 865 460 3 -527
-326 63 391 132 -363 231 660 956 857 462 6 -522
-330 62 392 132 -359 226 662 956 860 455 -1 -541
-323 69 392 135 -361 226 677 961 862 453 -8 -546
-323 70 393 127 -358 230 665 969 860 453 -5 -549
-315 75 390 127 -358 232 679 976 862 465 -5 -546
-313 75 387 121 -353 234 677 978 865 467 1 -529
-315 70 385 120 -350 232 677 983 874 462 -1 -529
-323 65 387 124 -350 229 675 978 877 467 6 -519
-318 69 386 130 -355 227 670 971 872 470 6 -524
-313 76 388 125 -353 227 665 966 867 462 -1 -539
-320 77 397 119 -352 232 665 966 872 460 -1 -539
-298 91 388 123 -359 238 662 978 877 455 6 -536
-286 91 376 103 -343 240 672 991 882 477 11 -534
-292 88 380 97 -331 234 663 993 890 486 23 -519
-286 93 379 102 -336 235 658 1003 895 491 30 -509
-284 87 370 96 -332 236 663 1013 910 501 42 -492
-263 91 353 98 -326 230 660 1035 924 508 55 -485
-253 83 336 86 -308 223 653 1069 944 521 67 -485
-237 96 332 85 -295 210 663 1117 980 535 74 -483
-225 127 352 70 -285 214 668 1166 1010 561 94 -470
-209 153 363 48 -288 240 680 1192 1046 585 116 -458
-207 169 375 28 -286 258 675 1189 1071 624 142 -429
-201 197 397 19 -291 273 651 1101 1071 661 177 -397
-180 227 407 2 -298 297 624 926 995 673 199 -375
-163 264 426 -23 -293 317 575 704 880 641 196 -353
-143 303 446 -50 -295 345 502 523 780 578 179 -344
-132 340 471 -79 -295 374 433 350 680 534 172 -324
-94 395 490 -102 -301 406 353 147 553 483 186 -295
-58 440 497 -148 -290 442 253 -59 409 414 169 -268
-25 468 492 -190 -276 468 158 -225 305 341 152 -241
12 476 463 -220 -257 480 48 -391 202 297 169 -190
51 480 428 -244 -223 469 -71 -574 68 258 186 -146
91 495 402 -264 -185 455 -207 -784 -104 180 179 -109
125 501 373 -292 -152 448 -368 -994 -280 70 167 -78
156 504 347 -312 -120 437 -513 -1174 -436 -34 142 -51
180 510 329 -329 -92 427 -626 -1330 -580 -127 138 -12
191 498 304 -345 -71 419 -731 -1471 -724 -222 135 29
200 497 297 -344 -53 402 -821 -1605 -866 -320 118 68
203 497 292 -348 -46 397 -923 -1754 -1022 -425 84 97
211 486 275 -350 -41 396 -999 -1873 -1154 -552 28 102
214 470 255 -348 -29 381 -1057 -2000 -1298 -680 -31 109
236 456 219 -342 -18 363 -1123 -2137 -1444 -819 -95 107
263 448 185 -346 10 337 -1194 -2257 -1590 -958 -153 124
291 450 158 -356 41 317 -1240 -2330 -1698 -1090 -202 139
308 442 133 -370 68 305 -1284 -2366 -1781 -1200 -239 173
310 439 128 -375 89 289 -1294 -2381 -1834 -1278 -263 207
305 434 128 -374 92 284 -1316 -2400 -1891 -1331 -268 258
321 446 124 -369 90 281 -1323 -2403 -1934 -1405 -295 292
318 453 135 -383 100 286 -1314 -2381 -1949 -1473 -336 309
297 470 173 -385 92 295 -1289 -2315 -1930 -1531 -380 322
289 475 186 -383 63 323 -1248 -2237 -1893 -1561 -417 324
284 466 181 -381 52 331 -1197 -2159 -1849 -1583 -458 322
290 445 154 -374 52 324 -1155 -2086 -1815 -1595 -505 329
281 414 132 -367 68 301 -1116 -2015 -1776 -1607 -549 334
273 374 101 -347 75 274 -1060 -1917 -1703 -1612 -585 334
264 337 73 -323 86 239 -1011 -1830 -1656 -1586 -592 351
269 296 26 -300 97 207 -957 -1737 -1588 -1556 -605 363
250 258 8 -281 123 163 -911 -1659 -1529 -1520 -602 370
231 229 -2 -253 122 134 -874 -1581 -1468 -1490 -600 373
209 204 -4 -230 117 113 -818 -1490 -1393 -1444 -583 380
209 172 -37 -207 107 100 -762 -1400 -1324 -1394 -553 392
215 145 -70 -191 123 67 -706 -1293 -1241 -1343 -536 402
207 112 -95 -180 143 37 -640 -1176 -1154 -1270 -502 419
200 92 -106 -159 151 8 -586 -1071 -1054 -1199 -473 436
190 78 -111 -146 153 -6 -525 -954 -956 -1126 -439 453
187 81 -106 -134 151 -15 -457 -829 -839 -1036 -395 456
186 87 -96 -135 146 -12 -391 -701 -717 -943 -339 463
170 87 -81 -136 141 -3 -330 -572 -588 -838 -285 463
153 96 -56 -129 125 2 -247 -421 -453 -718 -217 470
159 107 -51 -124 104 20 -174 -272 -319 -589 -141 475
155 109 -45 -132 104 28 -101 -130 -195 -477 -87 466
135 104 -29 -132 100 31 -30 -1 -73 -367 -41 453
105 97 -8 -119 81 37 33 110 24 -267 14 466
71 95 23 -101 56 45 99 213 124 -180 41 446
38 97 58 -81 24 61 162 323 222 -106 63 409
-1 100 101 -67 -9 79 228 420 314 -38 75 334
-47 95 142 -48 -50 102 299 513 405 29 75 253
-92 102 195 -22 -94 120 361 608 486 98 78 183
-119 98 219 -4 -144 150 425 698 562 154 70 104
-149 86 236 9 -169 159 490 784 635 212 61 19
-168 81 251 30 -192 162 544 852 698 264 58 -46
-183 84 268 42 -210 167 586 903 750 311 46 -126
-211 79 290 49 -225 176 622 952 798 345 34 -192
-234 76 312 66 -250 186 649 1001 845 377 31 -251
-251 70 322 78 -273 195 686 1052 891 413 34 -309
-268 73 341 90 -286 197 720 1101 937 455 51 -341
-291 65 356 97 -305 208 751 1152 977 492 58 -373
-308 63 371 112 -324 212 793 1208 1033 535 73 -397
-306 66 372 122 -340 218 830 1255 1062 577 92 -407
-311 60 371 119 -339 222 847 1277 1086 609 104 -422
-316 55 371 124 -341 217 864 1291 1106 623 104 -439
-329 51 382 129 -344 214 864 1299 1120 633 106 -458
-335 47 383 138 -356 218 861 1308 1125 637 99 -473
-340 53 394 142 -360 217 876 1321 1135 635 92 -495
-336 52 389 142 -367 225 883 1325 1138 642 89 -505
-329 63 394 141 -363 222 886 1340 1142 650 89 -514
-335 66 401 131 -362 229 893 1357 1157 657 87 -514
-333 64 398 134 -368 235 898 1362 1164 672 92 -505
-333 56 389 133 -366 232 915 1379 1179 677 94 -512
-338 52 390 138 -361 224 911 1374 1184 686 102 -512
-347 50 398 141 -365 222 903 1382 1181 686 99 -522
-356 56 414 147 -373 224 911 1386 1186 681 94 -534
-354 56 411 149 -385 235 913 1396 1191 682 92 -536
-353 61 416 147 -383 234 915 1411 1194 690 92 -541
-349 62 412 145 -385 239 930 1428 1211 702 99 -534
-350 55 406 142 -382 238 930 1433 1208 719 111 -519
-349 49 399 147 -379 232 932 1438 1223 721 114 -519
-348 49 399 150 -374 225 935 1435 1228 721 114 -514
-355 45 401 149 -374 224 930 1433 1218 714 106 -531
-355 46 404 155 -378 224 930 1440 1221 704 97 -549
-357 50 409 153 -379 225 937 1443 1223 709 97 -549
-354 56 411 153 -383 230 935 1457 1230 709 99 -551
-359 51 411 149 -382 235 950 1473 1240 726 102 -546
-355 47 404 153 -384 233 957 1487 1252 736 114 -529
-355 45 401 153 -379 227 959 1492 1260 750 121 -522
-364 40 405 155 -378 224 972 1497 1272 750 121 -529
-364 40 405 161 -384 223 969 1502 1274 755 124 -531
-351 39 392 161 -384 223 969 1502 1272 753 119 -546
-353 46 401 156 -371 216 974 1509 1277 750 119 -553
-353 50 404 152 -377 223 974 1514 1277 753 116 -556
-344 49 394 151 -378 227 978 1534 1284 755 116 -558
-343 51 396 147 -368 222 988 1553 1299 765 119 -544
-346 52 400 145 -370 223 983 1558 1301 776 128 -536
-354 42 398 146 -373 226 988 1561 1311 783 128 -536
-364 41 406 155 -376 220 988 1563 1311 790 131 -539
-367 41 411 161 -383 224 983 1563 1311 781 124 -551
-367 50 417 162 -388 226 990 1578 1321 776 116 -551
-361 66 427 158 -392 234 995 1586 1323 781 119 -563
-351 66 417 147 -393 248 995 1603 1330 788 121 -561
-354 62 416 142 -383 243 1012 1623 1343 795 126 -556
-351 56 408 145 -384 239 1014 1640 1360 812 138 -541
-351 41 393 147 -378 233 1022 1647 1367 827 148 -529
-354 41 395 155 -371 218 1029 1652 1369 832 155 -527
-348 46 395 156 -373 220 1019 1654 1377 831 155 -534
-356 42 399 150 -371 221 1027 1667 1384 826 145 -546
-359 47 406 156 -377 221 1032 1681 1391 831 145 -549
-353 58 413 155 -382 227 1027 1693 1396 841 155 -546
-345 56 403 146 -382 235 1053 1715 1416 851 155 -549
-346 57 404 144 -373 229 1061 1737 1433 861 167 -529
-356 47 404 144 -375 231 1061 1750 1445 878 177 -524
-360 36 398 153 -380 226 1068 1759 1460 887 177 -529
-359 41 400 161 -378 217 1066 1767 1467 892 180 -531
-354 46 400 158 -378 222 1069 1764 1457 892 180 -544
-364 44 408 153 -376 224 1083 1781 1467 888 173 -556
-364 47 411 160 -384 227 1086 1801 1479 898 176 -553
-354 50 404 157 -387 229 1098 1828 1494 906 176 -551
-357 50 408 151 -378 227 1112 1845 1511 920 183 -546
-344 53 398 153 -382 229 1112 1857 1516 937 193 -531
-361 47 409 145 -370 227 1120 1869 1530 937 193 -531
-365 42 408 156 -384 228 1122 1874 1540 947 198 -527
-371 44 415 161 -386 226 1120 1879 1547 949 200 -536
-353 63 417 163 -392 231 1122 1894 1557 949 193 -556
-357 67 425 144 -384 240 1130 1906 1565 954 195 -553
-355 75 432 145 -391 246 1139 1928 1572 961 190 -556
-345 78 424 139 -393 254 1161 1952 1591 976 198 -549
-368 62 430 133 -384 251 1171 1967 1604 993 212 -529
-376 49 424 152 -399 246 1176 1981 1621 998 212 -534
-378 45 423 163 -399 238 1176 1977 1623 1005 215 -529
-382 45 427 166 -400 234 1171 1977 1621 998 210 -544
-381 49 431 168 -405 237 1176 1982 1626 998 205 -561
-382 51 433 166 -406 240 1178 1992 1630 1000 203 -558
-373 61 436 166 -408 244 1181 2007 1650 1003 205 -563
-366 63 431 156 -405 249 1195 2026 1652 1020 207 -558
-377 63 441 151 -399 248 1198 2031 1665 1032 222 -544
-386 55 441 157 -409 253 1199 2041 1669 1045 234 -531
-388 56 446 166 -414 248 1214 2043 1682 1055 237 -536
-388 51 441 166 -417 250 1209 2046 1687 1053 237 -536
-393 50 442 168 -415 245 1207 2041 1687 1055 239 -549
-394 51 445 172 -419 247 1216 2053 1694 1050 229 -563
-387 56 442 172 -420 249 1221 2063 1704 1055 229 -568
-382 60 441 166 -415 250 1231 2075 1713 1067 232 -563
-394 58 452 161 -413 250 1238 2085 1721 1079 237 -556
-386 64 450 168 -424 256 1233 2080 1723 1089 244 -544
-386 62 447 161 -418 258 1236 2078 1730 1092 244 -544
-386 63 450 162 -416 255 1233 2060 1731 1096 244 -549
-397 56 452 161 -418 256 1219 2053 1724 1091 239 -553
-397 61 457 171 -424 255 1224 2053 1727 1089 237 -561
-386 75 462 168 -426 260 1221 2048 1727 1091 239 -561
-370 90 462 156 -424 270 1219 2046 1729 1091 244 -551
-359 99 458 140 -416 276 1233 2056 1731 1094 244 -551
-354 96 451 130 -409 278 1233 2048 1731 1108 266 -524
-355 95 452 129 -403 273 1229 2046 1729 1116 276 -517
-359 92 452 130 -404 273 1219 2034 1736 1123 286 -502
-347 97 445 134 -405 273 1207 2014 1727 1116 295 -502
-351 99 450 125 -396 272 1199 1992 1714 1114 290 -507
-349 99 448 127 -401 275 1190 1975 1707 1104 290 -509
-342 106 448 125 -399 273 1185 1968 1700 1107 300 -495
-332 112 445 118 -396 277 1188 1965 1697 1109 305 -497
-318 113 431 111 -388 280 1178 1953 1690 1117 322 -461
-311 112 425 102 -375 272 1163 1941 1683 1117 325 -451
-305 103 409 100 -369 269 1158 1919 1673 1117 334 -436
-302 111 413 101 -358 256 1141 1895 1661 1109 339 -429
-285 118 406 96 -358 262 1122 1870 1641 1102 339 -431
-287 121 411 83 -346 262 1112 1855 1631 1085 337 -434
-283 128 413 83 -349 266 1092 1836 1614 1082 344 -429
-276 132 409 78 -348 272 1090 1824 1602 1082 351 -412
-263 140 406 72 -343 271 1080 1812 1595 1084 361 -395
-250 144 396 61 -335 273 1051 1785 1575 1084 375 -368
-241 148 391 53 -324 271 1051 1763 1566 1075 368 -358
-232 152 386 46 -316 270 1029 1736 1548 1070 388 -346
-222 152 376 40 -309 271 1009 1712 1531 1053 385 -348
-225 155 381 35 -299 266 997 1685 1517 1043 385 -348
-214 156 371 35 -303 270 980 1663 1492 1036 390 -336
-210 165 376 29 -293 265 966 1654 1478 1026 395 -326
-205 170 376 23 -293 272 961 1632 1466 1026 410 -307
-194 173 369 18 -291 275 944 1610 1453 1027 424 -280
-186 173 361 11 -281 272 929 1591 1444 1024 424 -261
-189 168 359 6 -273 267 918 1554 1423 1019 432 -239
-183 167 351 11 -274 265 889 1517 1379 1005 427 -236
-177 170 349 8 -267 261 872 1490 1364 973 414 -248
-180 178 358 3 -263 260 860 1469 1352 956 412 -244
-160 185 346 1 -269 270 838 1451 1332 946 414 -236
-170 188 358 -11 -253 267 840 1437 1320 939 419 -229
-168 182 351 -8 -264 275 828 1417 1305 939 427 -209
-168 184 353 -5 -258 269 813 1400 1291 927 422 -207
-176 182 361 -7 -260 271 813 1381 1284 914 417 -204
-165 185 352 -1 -268 273 801 1361 1266 907 412 -202
-175 178 355 -8 -258 271 777 1327 1244 890 405 -214
-176 183 361 -1 -265 267 777 1308 1227 865 390 -236
-176 185 363 -2 -269 273 767 1291 1210 851 378 -244
-191 174 368 -3 -270 276 762 1284 1196 843 366 -251
-204 165 370 8 -280 272 767 1277 1188 834 361 -248
-210 159 370 20 -286 270 757 1255 1171 829 353 -246
-220 143 366 27 -290 266 752 1240 1162 812 334 -261
-225 139 366 39 -292 255 747 1218 1147 792 319 -273
-230 141 373 44 -295 254 728 1194 1118 775 305 -300
-239 140 380 45 -301 259 728 1179 1113 754 283 -319
-242 140 385 50 -308 262 728 1172 1103 739 268 -329
-245 140 388 51 -313 264 723 1165 1088 732 258 -336
-252 128 383 52 -316 265 733 1157 1076 720 249 -339
-248 127 377 62 -317 256 726 1147 1064 708 236 -341
-259 113 375 61 -312 253 731 1138 1057 698 222 -344
-264 106 373 73 -317 245 733 1123 1049 688 212 -358
-270 102 374 79 -318 241 716 1111 1032 671 205 -368
-273 100 374 84 -322 239 716 1108 1032 656 185 -392
-280 99 379 86 -323 237 716 1104 1027 652 180 -402
-281 100 382 91 -329 241 714 1101 1018 651 175 -409
-275 105 380 91 -331 242 728 1106 1018 649 163 -414
-273 106 379 85 -328 243 726 1096 1013 649 161 -412
-274 96 372 84 -325 244 726 1101 1010 639 151 -407
-282 87 369 89 -323 235 723 1094 1010 634 148 -412
-292 83 376 99 -325 230 719 1079 998 624 144 -417
-285 89 374 105 -334 230 716 1067 986 617 134 -429
-287 93 380 99 -329 233 709 1062 981 600 119 -451
-278 94 372 97 -334 237 709 1050 979 595 114 -456
-265 99 365 92 -324 235 711 1062 969 595 109 -453
-263 106 369 84 -314 233 714 1062 969 594 103 -453
-264 104 369 79 -316 240 711 1062 974 586 101 -453
-273 105 378 80 -317 237 721 1068 976 584 93 -458
-282 99 381 84 -325 242 723 1063 976 584 101 -451
-281 98 378 92 -331 242 715 1056 976 581 98 -453
-286 93 378 92 -330 240 720 1063 976 567 91 -468
-289 98 386 97 -333 237 722 1065 979 579 91 -470
-282 106 388 96 -338 243 732 1068 971 579 91 -468
-285 104 388 89 -335 249 735 1058 974 581 91 -461
-279 105 383 91 -336 248 732 1068 971 581 96 -451
-275 105 379 88 -331 246 730 1068 959 579 93 -448
-280 102 382 85 -328 243 727 1061 964 574 91 -448
-274 99 373 89 -331 243 720 1056 959 569 84 -458
-278 98 375 88 -324 236 722 1063 969 564 71 -478
-284 105 388 90 -327 236 720 1063 971 564 76 -480
-276 109 386 90 -336 247 718 1068 969 564 71 -483
-278 109 386 84 -331 247 730 1078 971 566 71 -483
-275 101 376 85 -331 248 735 1080 976 574 79 -470
-286 89 376 88 -325 240 730 1080 976 579 81 -470
-284 91 376 99 -331 232 737 1075 981 581 86 -466
-285 94 378 96 -330 234 737 1073 979 576 86 -468
-280 94 373 96 -331 237 732 1058 971 570 81 -478
-278 94 371 94 -327 235 727 1065 974 565 57 -492
-288 98 386 92 -324 234 727 1073 976 560 67 -495
-286 99 386 95 -337 242 735 1080 976 567 74 -488
-275 99 376 94 -335 243 735 1078 984 577 81 -475
-283 91 376 88 -326 237 730 1083 982 582 86 -468
-283 88 371 95 -329 234 733 1080 984 582 79 -473
-281 98 379 98 -327 230 737 1083 989 580 81 -461
-291 94 386 91 -330 239 720 1078 982 582 86 -468
-297 94 393 99 -338 241 728 1075 987 582 84 -475
-291 104 395 101 -345 243 728 1073 984 577 81 -480
-284 104 388 94 -343 251 728 1083 984 579 81 -485
-286 101 388 90 -335 247 745 1092 989 584 79 -480
-280 106 388 93 -337 246 742 1092 987 591 88 -463
-286 99 386 87 -334 247 740 1087 984 591 88 -458
-300 88 388 94 -335 243 737 1080 989 591 88 -458
-305 78 383 106 -344 239 718 1070 980 586 91 -458
-316 77 393 113 -344 231 720 1073 977 582 86 -478
-322 84 408 120 -354 236 723 1075 982 582 86 -478
-309 79 390 118 -365 246 720 1078 975 582 84 -488
-296 94 390 115 -350 235 733 1090 977 582 74 -492
-285 100 387 101 -343 243 730 1087 980 585 79 -483
-283 104 388 93 -337 243 733 1087 984 590 84 -470
-287 94 382 90 -335 247 742 1090 997 597 88 -468
-287 99 387 96 -335 239 730 1083 992 604 91 -468
-280 100 381 94 -338 243 723 1083 987 592 86 -480
-291 104 397 90 -332 241 727 1080 987 585 79 -488
-276 115 391 94 -345 251 724 1084 984 583 79 -490
-279 111 392 80 -334 253 729 1086 987 587 81 -483
-268 117 386 84 -337 252 736 1091 992 587 84 -480
-263 118 382 76 -328 252 729 1086 982 592 84 -473
-276 107 383 73 -323 252 729 1084 987 589 83 -475
-291 105 397 84 -330 246 724 1076 980 585 83 -478
-289 109 399 94 -345 252 717 1069 977 577 81 -485
-293 109 402 90 -345 254 722 1074 980 577 76 -497
-291 109 402 93 -348 257 719 1071 977 575 73 -500
-280 121 402 91 -347 256 712 1074 967 575 71 -500
-283 116 399 80 -340 263 727 1084 980 570 64 -497
-284 110 394 84 -340 258 729 1084 982 582 81 -475
-282 102 385 88 -339 252 732 1086 984 587 81 -473
-296 98 394 90 -333 244 732 1081 989 585 86 -470
-291 102 394 100 -345 246 719 1074 989 583 88 -478
-288 109 397 95 -343 248 719 1070 972 576 78 -492
-289 115 404 90 -342 253 719 1067 965 564 76 -500
-287 115 402 88 -347 259 724 1067 962 566 73 -495
-294 107 402 87 -344 258 729 1077 970 566 71 -495
-282 113 397 94 -348 255 732 1075 970 576 81 -480
-283 110 393 84 -339 255 732 1082 977 581 81 -478
-285 105 391 87 -338 251 734 1082 984 581 83 -473
-310 88 398 90 -338 247 722 1070 975 581 88 -468
-317 78 395 111 -354 242 705 1055 962 573 83 -483
-315 74 388 120 -356 236 703 1053 958 559 69 -497
-315 88 402 121 -350 233 695 1055 958 556 61 -505
-307 98 404 113 -358 245 708 1060 955 558 61 -500
-301 89 391 105 -355 251 713 1058 955 561 64 -495
-301 91 393 106 -346 240 708 1058 953 558 64 -490
-302 83 385 105 -347 242 713 1055 958 553 64 -488
-321 79 401 110 -343 234 710 1048 960 556 61 -490
-318 74 393 121 -360 240 698 1041 948 548 56 -497
-311 74 386 123 -355 235 703 1041 945 541 49 -509
-314 82 396 120 -348 231 703 1038 948 539 51 -514
-304 84 388 117 -354 240 698 1043 943 539 49 -507
-306 85 392 111 -346 238 710 1055 950 545 54 -500
-306 77 383 111 -349 239 708 1058 948 554 69 -490
-307 79 387 116 -344 231 710 1058 958 557 64 -485
-310 77 387 115 -348 234 710 1046 953 549 69 -473
-314 74 387 117 -349 233 693 1033 940 545 66 -480
-309 76 384 121 -350 233 695 1031 936 535 51 -502
-318 72 390 117 -347 230 695 1026 931 530 49 -507
-309 82 390 124 -354 233 692 1024 919 525 44 -512
-312 87 400 115 -349 238 704 1036 923 525 39 -512
-314 88 401 113 -357 244 704 1041 931 532 42 -505
-314 87 400 113 -358 245 702 1036 928 534 44 -495
-314 84 397 115 -357 245 699 1034 931 537 47 -488
-306 83 389 116 -355 242 692 1027 928 532 44 -500
-314 80 394 112 -348 236 690 1025 926 525 34 -514
-322 80 402 117 -354 238 694 1027 928 520 32 -512
-318 85 403 122 -363 242 692 1027 926 520 34 -514
-314 87 400 117 -361 245 697 1032 923 517 27 -519
-304 87 390 115 -357 245 707 1039 928 520 29 -519
-309 79 389 110 -347 240 699 1042 933 525 37 -495
-309 73 383 115 -349 235 702 1039 933 525 42 -495
-316 70 386 118 -346 230 694 1027 931 532 44 -485
-317 68 387 123 -352 229 682 1020 921 523 38 -502
-321 65 386 124 -353 229 690 1020 919 516 33 -509
-314 76 390 128 -354 227 690 1022 916 511 30 -517
-310 86 397 120 -352 235 690 1029 911 509 26 -517
-309 87 396 112 -354 242 699 1029 919 513 30 -512
-307 84 392 111 -353 242 699 1029 919 521 35 -497
-314 78 392 112 -350 240 702 1029 916 518 35 -497
-323 73 397 118 -353 238 697 1025 926 516 35 -497
-323 71 395 126 -360 238 683 1025 914 509 35 -505
-320 78 400 127 -359 235 685 1015 911 509 28 -517
-306 93 400 121 -360 240 680 1010 909 508 30 -517
-293 104 397 107 -353 248 680 1017 909 506 11 -529
-289 108 397 95 -346 252 700 1037 919 513 26 -519
-284 106 391 91 -343 255 705 1039 926 528 40 -497
-282 103 385 89 -338 250 705 1044 931 533 48 -492
-290 97 387 90 -333 246 707 1039 943 535 50 -490
-293 90 385 98 -339 244 705 1034 940 542 55 -488
-288 98 387 101 -338 239 695 1032 933 533 48 -502
-290 97 387 95 -337 244 702 1032 932 525 45 -502
-289 104 394 98 -338 244 695 1027 920 525 48 -502
-289 109 398 93 -341 250 695 1027 912 521 45 -502
-292 101 393 90 -343 255 700 1029 912 516 45 -500
-290 99 389 95 -342 248 700 1032 910 516 43 -492
-298 97 394 96 -340 246 697 1029 920 519 40 -488
-300 94 394 101 -346 247 695 1029 922 519 43 -490
-300 93 394 104 -347 246 688 1020 910 514 40 -500
-311 87 397 104 -347 244 692 1022 917 507 30 -519
-311 84 395 112 -354 243 685 1017 917 507 28 -519
-303 89 391 113 -353 240 673 1025 910 509 30 -519
-307 81 389 107 -347 241 691 1032 917 509 30 -517
-310 81 391 113 -348 235 691 1029 917 512 33 -502
-315 76 391 116 -351 238 691 1032 917 521 26 -497
-313 70 383 121 -353 235 691 1020 922 521 35 -495
-311 67 379 122 -348 227 679 1012 910 511 33 -502
-317 65 383 123 -346 224 682 1007 902 501 18 -517
-317 73 391 127 -351 224 682 1013 902 496 18 -519
-315 77 393 123 -354 234 682 1018 905 499 23 -517
-313 79 393 120 -354 235 687 1026 912 506 30 -509
-316 83 401 117 -353 237 684 1028 910 514 38 -500
-313 86 399 117 -359 243 682 1021 902 511 38 -497
-309 82 391 115 -356 244 687 1013 907 506 35 -497
-321 73 396 115 -351 238 677 1008 912 502 28 -505
-316 81 399 124 -359 235 677 1006 905 497 26 -524
-313 77 390 118 -358 240 684 1011 910 495 23 -524
-313 77 390 118 -352 234 674 1011 900 495 26 -522
-320 73 394 118 -352 234 682 1018 893 500 21 -527
-315 77 393 124 -357 235 687 1026 912 500 23 -517
-310 73 384 120 -354 235 684 1028 910 510 28 -505
-313 70 383 120 -347 230 691 1023 910 507 30 -502
-312 69 382 122 -348 227 689 1013 910 502 33 -500
-324 63 390 121 -347 226 683 1011 902 495 26 -512
-323 70 395 130 -357 226 683 1012 903 489 19 -524
-321 76 398 126 -358 233 679 1007 900 489 19 -524
-321 72 395 121 -360 237 677 1010 898 488 13 -534
-319 70 392 124 -357 234 682 1012 895 488 8 -531
-311 77 390 124 -356 231 694 1022 898 490 13 -527
-315 77 395 116 -350 234 699 1024 900 493 15 -514
-315 74 390 118 -355 236 699 1022 903 493 15 -512
-317 62 380 120 -352 232 699 1022 905 498 20 -517
-318 64 384 127 -349 221 696 1012 900 495 20 -517
-317 69 387 126 -351 223 686 1007 893 490 20 -522
-323 70 395 124 -352 228 689 1007 898 483 13 -529
-329 68 400 126 -358 233 684 1005 886 485 15 -527
-327 70 400 130 -364 233 686 1005 881 484 10 -531
-318 75 395 127 -363 234 699 1019 891 484 13 -519
-318 72 392 121 -356 236 699 1022 895 491 20 -512
-316 66 384 123 -355 233 694 1024 905 494 22 -509
-316 62 379 124 -350 225 703 1017 908 499 22 -505
-316 69 386 126 -347 220 694 1007 898 489 22 -517
-322 70 395 123 -351 227 701 1002 893 477 10 -529
-316 75 392 125 -358 232 694 1010 898 477 10 -534
-304 76 381 120 -353 234 694 1014 898 482 13 -527
-312 72 387 113 -342 228 701 1024 903 486 15 -524
-317 69 387 119 -350 229 693 1019 900 496 13 -514
-315 62 378 124 -352 228 695 1019 898 493 25 -519
-316 60 378 126 -346 220 698 1007 900 493 17 -519
-321 66 389 127 -346 220 690 1002 893 486 13 -524
-318 81 400 126 -355 227 685 1005 893 484 13 -531
-323 79 402 118 -360 240 681 997 895 479 13 -534
-319 83 403 121 -363 240 678 1000 883 476 8 -536
-313 88 402 118 -362 244 690 1007 888 479 5 -536
-315 81 396 112 -358 245 690 1012 891 481 15 -519
-315 77 394 116 -356 239 695 1012 898 484 13 -514
-312 71 384 118 -354 236 698 1012 905 486 17 -512
-318 63 381 120 -348 228 690 1002 903 487 20 -509
-326 62 388 127 -349 223 683 995 893 482 15 -519
-326 66 392 131 -356 225 695 1005 895 477 10 -531
-321 72 394 129 -359 229 688 1000 888 477 20 -519
-312 77 391 124 -356 234 690 1002 886 477 17 -524
-313 77 391 116 -351 234 698 1012 893 477 15 -519
-310 72 383 118 -351 236 693 1007 888 485 27 -500
-309 70 378 118 -346 228 693 1010 893 485 25 -502
-309 58 366 119 -343 226 688 1002 893 485 22 -505
-318 71 389 125 -337 214 673 995 886 477 17 -522
-316 70 385 123 -354 231 681 992 888 474 13 -539
-322 79 400 123 -350 229 681 997 888 474 8 -539
-318 85 402 121 -361 240 681 1002 888 477 10 -549
-311 85 395 116 -360 245 691 1011 891 477 5 -531
-311 79 389 113 -352 242 691 1008 886 484 15 -517
-318 70 388 115 -349 234 691 1006 891 489 17 -512
-315 69 383 124 -351 231 693 1003 895 491 15 -509
-298 87 385 123 -348 227 683 1001 893 484 17 -512
-293 97 390 104 -340 237 683 1001 893 479 15 -524
-296 102 398 97 -340 244 691 1003 895 479 15 -529
-302 98 400 97 -345 251 691 1011 893 485 18 -524
-301 96 398 102 -350 250 708 1023 900 490 21 -514
-299 97 398 103 -349 248 703 1028 910 500 31 -502
-293 96 389 101 -348 248 708 1030 913 507 36 -495
-298 102 400 98 -340 243 713 1033 922 510 40 -490
-306 103 410 98 -348 253 710 1033 925 507 45 -490
-308 113 421 102 -358 257 708 1033 920 510 43 -507
-303 119 422 97 -364 267 713 1030 920 505 38 -509
-301 118 420 92 -361 272 715 1034 922 505 36 -517
-294 132 427 92 -360 270 722 1041 922 507 36 -519
-289 141 432 81 -360 281 727 1046 930 512 38 -512
-288 137 426 74 -360 287 722 1048 930 516 36 -505
-289 125 415 75 -356 282 726 1053 944 524 43 -497
-290 124 415 82 -351 271 726 1046 942 531 50 -492
-278 131 410 83 -351 271 714 1038 939 526 48 -497
-275 142 417 74 -343 272 719 1036 937 521 48 -502
-265 144 410 66 -345 281 719 1038 937 526 48 -505
-250 157 407 60 -337 277 719 1053 942 524 50 -500
-231 169 400 47 -328 282 724 1055 947 541 58 -483
-227 175 405 31 -315 285 726 1060 947 546 70 -463
-226 171 399 26 -316 289 731 1068 959 548 79 -451
-228 166 396 27 -312 285 731 1058 964 559 87 -448
-244 155 402 31 -312 281 712 1043 954 559 89 -448
-250 155 407 44 -323 278 699 1036 944 552 77 -463
-261 158 422 48 -328 282 690 1031 939 539 75 -473
-263 153 417 52 -342 289 682 1031 934 537 70 -478
-259 147 407 55 -339 286 692 1041 942 542 70 -475
-258 141 399 57 -333 277 695 1046 944 547 75 -466
-259 135 394 59 -328 271 695 1043 944 549 82 -458
-261 126 389 63 -327 265 697 1038 944 552 79 -461
-259 124 384 68 -326 258 687 1026 939 544 79 -463
-254 124 379 68 -322 254 678 1021 934 539 72 -478
-246 124 370 65 -317 252 687 1029 939 534 60 -483
-246 129 375 62 -308 248 687 1034 937 539 79 -470
-242 123 365 59 -310 253 685 1036 939 541 72 -473
-243 110 354 60 -304 244 690 1036 942 549 77 -461
-255 101 356 66 -299 232 680 1029 930 551 79 -448
-244 99 345 77 -306 228 680 1019 915 541 72 -456
-246 93 339 72 -295 222 676 1009 913 524 65 -468
-250 92 343 76 -293 216 663 993 900 512 53 -480
-260 94 355 80 -297 219 661 986 895 502 40 -490
-272 94 367 83 -308 225 654 983 888 497 36 -495
-265 93 359 90 -320 231 651 986 886 496 31 -497
-278 86 365 86 -311 225 666 991 893 501 31 -497
-277 87 365 97 -321 225 663 993 889 498 33 -485
-288 82 372 96 -320 226 666 986 887 498 31 -488
-308 66 375 103 -330 226 673 983 892 486 28 -495
-314 66 381 121 -341 220 668 981 884 484 18 -497
-324 68 392 124 -347 223 671 974 874 469 14 -524
-326 70 397 129 -357 230 673 971 874 464 4 -536
-321 70 392 129 -360 234 668 971 865 462 -1 -544
-315 72 389 126 -355 231 678 978 872 462 -3 -551
-317 70 389 121 -352 230 680 981 870 471 3 -541
-316 65 382 124 -353 229 680 981 870 474 3 -531
-322 62 383 126 -348 224 685 978 884 471 6 -529
-324 70 393 131 -353 223 677 971 874 471 6 -527
-329 68 398 127 -358 232 672 961 865 459 -1 -541
-323 69 392 131 -364 232 667 959 862 454 -5 -549
-319 74 393 127 -358 230 665 964 860 449 -8 -549
-320 76 397 124 -357 234 670 966 857 457 -8 -539
-314 80 396 123 -359 236 667 974 862 459 -1 -522
-312 79 391 118 -355 237 670 971 860 461 3 -514
-315 70 386 118 -352 235 672 964 862 465 6 -512
-329 66 396 124 -350 229 670 964 865 460 3 -527
-326 63 391 132 -363 231 660 956 857 462 6 -522
-330 62 392 132 -359 226 662 956 860 455 -1 -541
-323 69 392 135 -361 226 677 961 862 453 -8 -546
-323 70 393 127 -358 230 665 969 860 453 -5 -549
-315 75 390 127 -358 232 679 976 862 465 -5 -546
-313 75 387 121 -353 234 677 978 865 467 1 -529
-315 70 385 120 -350 232 677 983 874 462 -1 -529
-323 65 387 124 -350 229 675 978 877 467 6 -519
-318 69 386 130 -355 227 670 971 872 470 6 -524
-313 76 388 125 -353 227 665 966 867 462 -1 -539
-320 77 397 119 -352 232 665 966 872 460 -1 -539
-298 91 388 123 -359 238 662 978 877 455 6 -536
-286 91 376 103 -343 240 672 991 882 477 11 -534
-292 88 380 97 -331 234 663 993 890 486 23 -519
-286 93 379 102 -336 235 658 1003 895 491 30 -509
-284 87 370 96 -332 236 663 1013 910 501 42 -492
-263 91 353 98 -326 230 660 1035 924 508 55 -485
-253 83 336 86 -308 223 653 1069 944 521 67 -485
-237 96 332 85 -295 210 663 1117 980 535 74 -483
-225 127 352 70 -285 214 668 1166 1010 561 94 -470
-209 153 363 48 -288 240 680 1192 1046 585 116 -458
-207 169 375 28 -286 258 675 1189 1071 624 142 -429
-201 197 397 19 -291 273 651 1101 1071 661 177 -397
-180 227 407 2 -298 297 624 926 995 673 199 -375
-163 264 426 -23 -293 317 575 704 880 641 196 -353
-143 303 446 -50 -295 345 502 523 780 578 179 -344
-132 340 471 -79 -295 374 433 350 680 534 172 -324
-94 395 490 -102 -301 406 353 147 553 483 186 -295
-58 440 497 -148 -290 442 253 -59 409 414 169 -268
-25 468 492 -190 -276 468 158 -225 305 341 152 -241
12 476 463 -220 -257 480 48 -391 202 297 169 -190
51 480 428 -244 -223 469 -71 -574 68 258 186 -146
91 495 402 -264 -185 455 -207 -784 -104 180 179 -109
125 501 373 -292 -152 448 -368 -994 -280 70 167 -78
156 504 347 -312 -120 437 -513 -1174 -436 -34 142 -51
180 510 329 -329 -92 427 -626 -1330 -580 -127 138 -12
191 498 304 -345 -71 419 -731 -1471 -724 -222 135 29
200 497 297 -344 -53 402 -821 -1605 -866 -320 118 68
203 497 292 -348 -46 397 -923 -1754 -1022 -425 84 97
211 486 275 -350 -41 396 -999 -1873 -1154 -552 28 102
214 470 255 -348 -29 381 -1057 -2000 -1298 -680 -31 109
236 456 219 -342 -18 363 -1123 -2137 -1444 -819 -95 107
263 448 185 -346 10 337 -1194 -2257 -1590 -958 -153 124
291 450 158 -356 41 317 -1240 -2330 -1698 -1090 -202 139
308 442 133 -370 68 305 -1284 -2366 -1781 -1200 -239 173
310 439 128 -375 89 289 -1294 -2381 -1834 -1278 -263 207
305 434 128 -374 92 284 -1316 -2400 -1891 -1331 -268 258
321 446 124 -369 90 281 -1323 -2403 -1934 -1405 -295 292
318 453 135 -383 100 286 -1314 -2381 -1949 -1473 -336 309
297 470 173 -385 92 295 -1289 -2315 -1930 -1531 -380 322
289 475 186 -383 63 323 -1248 -2237 -1893 -1561 -417 324
284 466 181 -381 52 331 -1197 -2159 -1849 -1583 -458 322
290 445 154 -374 52 324 -1155 -2086 -1815 -1595 -505 329
281 414 132 -367 68 301 -1116 -2015 -1776 -1607 -549 334
273 374 101 -347 75 274 -1060 -1917 -1703 -1612 -585 334
264 337 73 -323 86 239 -1011 -1830 -1656 -1586 -592 351
269 296 26 -300 97 207 -957 -1737 -1588 -1556 -605 363
250 258 8 -281 123 163 -911 -1659 -1529 -1520 -602 370
231 229 -2 -253 122 134 -874 -1581 -1468 -1490 -600 373
209 204 -4 -230 117 113 -818 -1490 -1393 -1444 -583 380
209 172 -37 -207 107 100 -762 -1400 -1324 -1394 -553 392
215 145 -70 -191 123 67 -706 -1293 -1241 -1343 -536 402
207 112 -95 -180 143 37 -640 -1176 -1154 -1270 -502 419
200 92 -106 -159 151 8 -586 -1071 -1054 -1199 -473 436
190 78 -111 -146 153 -6 -525 -954 -956 -1126 -439 453
187 81 -106 -134 151 -15 -457 -829 -839 -1036 -395 456
186 87 -96 -135 146 -12 -391 -701 -717 -943 -339 463
170 87 -81 -136 141 -3 -330 -572 -588 -838 -285 463
153 96 -56 -129 125 2 -247 -421 -453 -718 -217 470
159 107 -51 -124 104 20 -174 -272 -319 -589 -141 475
155 109 -45 -132 104 28 -101 -130 -195 -477 -87 466
135 104 -29 -132 100 31 -30 -1 -73 -367 -41 453
105 97 -8 -119 81 37 33 110 24 -267 14 466
71 95 23 -101 56 45 99 213 124 -180 41 446
38 97 58 -81 24 61 162 323 222 -106 63 409
-1 100 101 -67 -9 79 228 420 314 -38 75 334
-47 95 142 -48 -50 102 299 513 405 29 75 253
-92 102 195 -22 -94 120 361 608 486 98 78 183
-119 98 219 -4 -144 150 425 698 562 154 70 104
-149 86 236 9 -169 159 490 784 635 212 61 19
-168 81 251 30 -192 162 544 852 698 264 58 -46
-183 84 268 42 -210 167 586 903 750 311 46 -126
-211 79 290 49 -225 176 622 952 798 345 34 -192
-234 76 312 66 -250 186 649 1001 845 377 31 -251
-251 70 322 78 -273 195 686 1052 891 413 34 -309
-268 73 341 90 -286 197 720 1101 937 455 51 -341
-291 65 356 97 -305 208 751 1152 977 492 58 -373
-308 63 371 112 -324 212 793 1208 1033 535 73 -397
-306 66 372 122 -340 218 830 1255 1062 577 92 -407
-311 60 371 119 -339 222 847 1277 1086 609 104 -422
-316 55 371 124 -341 217 864 1291 1106 623 104 -439
-329 51 382 129 -344 214 864 1299 1120 633 106 -458
-335 47 383 138 -356 218 861 1308 1125 637 99 -473
-340 53 394 142 -360 217 876 1321 1135 635 92 -495
-336 52 389 142 -367 225 883 1325 1138 642 89 -505
-329 63 394 141 -363 222 886 1340 1142 650 89 -514
-335 66 401 131 -362 229 893 1357 1157 657 87 -514
-333 64 398 134 -368 235 898 1362 1164 672 92 -505
-333 56 389 133 -366 232 915 1379 1179 677 94 -512
-338 52 390 138 -361 224 911 1374 1184 686 102 -512
-347 50 398 141 -365 222 903 1382 1181 686 99 -522
-356 56 414 147 -373 224 911 1386 1186 681 94 -534
-354 56 411 149 -385 235 913 1396 1191 682 92 -536
-353 61 416 147 -383 234 915 1411 1194 690 92 -541
-349 62 412 145 -385 239 930 1428 1211 702 99 -534
-350 55 406 142 -382 238 930 1433 1208 719 111 -519
-349 49 399 147 -379 232 932 1438 1223 721 114 -519
-348 49 399 150 -374 225 935 1435 1228 721 114 -514
-355 45 401 149 -374 224 930 1433 1218 714 106 -531
-355 46 404 155 -378 224 930 1440 1221 704 97 -549
-357 50 409 153 -379 225 937 1443 1223 709 97 -549
-354 56 411 153 -383 230 935 1457 1230 709 99 -551
-359 51 411 149 -382 235 950 1473 1240 726 102 -546
-355 47 404 153 -384 233 957 1487 1252 736 114 -529
-355 45 401 153 -379 227 959 1492 1260 750 121 -522
-364 40 405 155 -378 224 972 1497 1272 750 121 -529
-364 40 405 161 -384 223 969 1502 1274 755 124 -531
-351 39 392 161 -384 223 969 1502 1272 753 119 -546
-353 46 401 156 -371 216 974 1509 1277 750 119 -553
-353 50 404 152 -377 223 974 1514 1277 753 116 -556
-344 49 394 151 -378 227 978 1534 1284 755 116 -558
-343 51 396 147 -368 222 988 1553 1299 765 119 -544
-346 52 400 145 -370 223 983 1558 1301 776 128 -536
-354 42 398 146 -373 226 988 1561 1311 783 128 -536
-364 41 406 155 -376 220 988 1563 1311 790 131 -539
-367 41 411 161 -383 224 983 1563 1311 781 124 -551
-367 50 417 162 -388 226 990 1578 1321 776 116 -551
-361 66 427 158 -392 234 995 1586 1323 781 119 -563
-351 66 417 147 -393 248 995 1603 1330 788 121 -561
-354 62 416 142 -383 243 1012 1623 1343 795 126 -556
-351 56 408 145 -384 239 1014 1640 1360 812 138 -541
-351 41 393 147 -378 233 1022 1647 1367 827 148 -529
-354 41 395 155 -371 218 1029 1652 1369 832 155 -527
-348 46 395 156 -373 220 1019 1654 1377 831 155 -534
-356 42 399 150 -371 221 1027 1667 1384 826 145 -546
-359 47 406 156 -377 221 1032 1681 1391 831 145 -549
-353 58 413 155 -382 227 1027 1693 1396 841 155 -546
-345 56 403 146 -382 235 1053 1715 1416 851 155 -549
-346 57 404 144 -373 229 1061 1737 1433 861 167 -529
-356 47 404 144 -375 231 1061 1750 1445 878 177 -524
-360 36 398 153 -380 226 1068 1759 1460 887 177 -529
-359 41 400 161 -378 217 1066 1767 1467 892 180 -531
-354 46 400 158 -378 222 1069 1764 1457 892 180 -544
-364 44 408 153 -376 224 1083 1781 1467 888 173 -556
-364 47 411 160 -384 227 1086 1801 1479 898 176 -553
-354 50 404 157 -387 229 1098 1828 1494 906 176 -551
-357 50 408 151 -378 227 1112 1845 1511 920 183 -546
-344 53 398 153 -382 229 1112 1857 1516 937 193 -531
-361 47 409 145 -370 227 1120 1869 1530 937 193 -531
-365 42 408 156 -384 228 1122 1874 1540 947 198 -527
-371 44 415 161 -386 226 1120 1879 1547 949 200 -536
-353 63 417 163 -392 231 1122 1894 1557 949 193 -556
-357 67 425 144 -384 240 1130 1906 1565 954 195 -553
-355 75 432 145 -391 246 1139 1928 1572 961 190 -556
-345 78 424 139 -393 254 1161 1952 1591 976 198 -549
-368 62 430 133 -384 251 1171 1967 1604 993 212 -529
-376 49 424 152 -399 246 1176 1981 1621 998 212 -534
-378 45 423 163 -399 238 1176 1977 1623 1005 215 -529
-382 45 427 166 -400 234 1171 1977 1621 998 210 -544
-381 49 431 168 -405 237 1176 1982 1626 998 205 -561
-382 51 433 166 -406 240 1178 1992 1630 1000 203 -558
-373 61 436 166 -408 244 1181 2007 1650 1003 205 -563
-366 63 431 156 -405 249 1195 2026 1652 1020 207 -558
-377 63 441 151 -399 248 1198 2031 1665 1032 222 -544
-386 55 441 157 -409 253 1199 2041 1669 1045 234 -531
