127 816 687 -502 -266 774 -531 -268 803 208 351 988
127 816 687 -502 -266 774 -531 -268 803 208 351 988
122 816 692 -471 -278 755 196 303 831 197 341 983
132 826 692 -469 -283 757 201 308 825 999 761 499
132 826 692 -478 -278 762 205 308 825 994 750 485
157 860 702 -478 -278 762 196 303 820 989 755 485
152 855 702 -508 -271 784 204 308 825 985 745 480
147 841 692 -503 -273 782 208 318 830 985 745 480
152 855 702 -493 -271 769 208 313 824 989 755 490
137 816 678 -503 -273 782 213 318 829 985 750 485
118 811 692 -476 -268 750 207 318 824 985 750 485
122 831 707 -464 -286 755 202 308 814 985 745 485
118 821 702 -476 -290 772 212 313 814 965 731 471
166 860 692 -469 -290 764 207 308 809 965 731 466
166 865 697 -513 -261 779 201 308 802 955 726 461
142 846 702 -515 -264 784 210 318 812 955 721 462
157 855 697 -493 -278 777 210 318 807 965 736 477
132 831 697 -505 -268 779 214 318 812 960 731 472
122 816 692 -481 -281 767 214 328 822 960 731 472
161 841 678 -469 -283 757 209 328 812 969 745 481
137 841 702 -500 -256 762 209 328 816 959 731 467
171 890 717 -488 -281 774 208 337 821 954 731 462
186 924 736 -530 -271 806 207 342 821 964 736 467
166 919 751 -554 -273 833 232 357 840 959 731 462
166 938 770 -542 -290 838 236 367 850 978 750 481
152 938 785 -552 -300 857 250 375 855 987 760 491
118 914 795 -544 -315 864 275 400 877 987 760 496
108 919 809 -515 -337 857 275 400 873 1007 779 508
132 933 800 -513 -349 867 274 395 868 997 765 503
132 929 795 -532 -332 869 274 400 873 992 760 488
166 963 795 -530 -329 864 273 400 868 997 765 498
162 974 809 -564 -312 882 273 395 862 987 755 488
133 969 834 -566 -321 894 262 380 852 983 750 483
138 988 848 -549 -348 904 242 345 832 978 750 493
123 954 829 -561 -353 921 237 316 818 963 744 493
128 939 809 -537 -350 894 228 306 818 957 749 498
138 939 800 -532 -338 877 212 296 808 967 754 503
138 920 780 -537 -328 872 201 277 791 957 744 493
162 949 785 -527 -319 852 177 257 772 947 739 494
167 954 785 -555 -309 869 172 243 757 933 735 489
153 934 780 -560 -307 872 176 233 748 918 720 480
172 949 775 -543 -311 860 171 228 748 908 720 484
148 915 765 -560 -299 864 166 213 733 908 720 489
138 891 751 -531 -307 843 170 223 742 903 715 489
158 895 736 -514 -304 823 174 233 747 908 725 499
153 876 722 -526 -287 818 188 252 756 913 720 489
197 901 702 -514 -282 801 198 267 776 913 720 484
241 926 682 -548 -249 803 192 272 776 928 725 489
211 906 692 -582 -218 806 202 286 795 928 725 484
201 906 702 -557 -237 801 202 286 793 952 749 504
182 901 717 -553 -247 806 202 276 784 951 754 511
172 862 687 -540 -264 811 221 290 798 941 744 506
172 848 673 -516 -254 777 229 300 803 951 754 511
162 857 692 -509 -247 762 220 290 793 961 759 511
158 853 692 -509 -262 777 223 290 788 946 744 496
167 872 702 -504 -264 774 219 286 783 940 739 491
167 872 702 -518 -264 789 228 281 773 931 725 477
148 843 692 -518 -264 789 233 266 758 916 710 462
153 848 692 -494 -269 769 227 261 753 897 695 462
104 794 687 -499 -266 772 231 256 748 897 695 462
109 789 678 -448 -288 742 221 251 742 887 691 452
150 813 663 -448 -281 735 212 232 717 882 681 448
135 799 663 -479 -254 740 216 232 717 858 656 424
164 833 668 -465 -262 733 211 227 717 858 656 424
169 843 673 -496 -249 752 211 227 717 853 654 424
150 823 673 -504 -249 760 219 242 732 853 654 424
155 838 682 -484 -259 750 224 242 731 866 669 439
130 809 678 -494 -262 762 223 247 736 871 674 439
121 789 668 -467 -271 745 233 256 750 871 674 439
140 809 668 -453 -271 730 222 247 736 881 684 448
121 799 678 -472 -262 740 227 246 736 871 669 434
135 818 682 -457 -276 740 227 250 741 876 669 429
155 838 682 -475 -271 752 222 241 729 876 674 429
150 828 678 -494 -262 762 231 250 739 866 664 426
140 828 687 -487 -262 755 235 255 743 876 669 431
106 823 717 -482 -271 760 240 255 743 876 674 431
57 794 736 -462 -303 772 259 270 753 876 669 426
77 818 741 -425 -337 767 268 270 743 871 659 421
106 833 726 -447 -330 782 273 259 728 842 625 397
116 833 717 -469 -308 782 268 274 772 827 606 377
223 867 643 -474 -298 777 243 288 840 891 659 406
296 838 541 -545 -208 757 227 303 938 1007 742 445
374 794 419 -567 -120 691 169 298 1035 1178 879 509
501 809 308 -584 -20 608 90 293 1143 1412 1108 641
550 779 230 -655 97 559 41 332 1302 1685 1372 782
579 853 274 -664 161 506 -32 332 1468 2032 1694 954
579 1028 449 -716 153 564 -80 337 1619 2388 2016 1130
526 1160 634 -803 66 740 -119 230 1692 2709 2299 1271
623 1067 445 -843 -52 899 -130 98 1731 2992 2553 1408
677 1038 362 -845 90 757 -131 -18 1784 3168 2694 1501
545 1067 523 -857 158 701 -73 1 1945 3363 2850 1593
458 941 481 -806 12 796 -127 -189 1852 3592 2963 1593
390 668 278 -699 -9 713 -166 -584 1408 3568 2943 1598
253 468 214 -528 57 474 -93 -780 1027 3143 2675 1496
161 375 213 -359 20 342 -35 -883 695 2650 2215 1218
29 370 340 -267 -24 296 125 -790 357 2006 1542 812
0 346 345 -198 -153 357 231 -800 -96 918 483 248
14 351 335 -172 -170 347 304 -780 -384 43 -195 -112
4 341 335 -181 -158 345 260 -917 -779 -248 -336 -224
9 312 301 -172 -163 340 196 -941 -838 -561 -473 -322
0 278 276 -159 -143 308 162 -844 -726 -546 -429 -302
-19 200 219 -137 -136 279 176 -678 -595 -429 -361 -268
-9 195 204 -89 -118 211 195 -541 -483 -336 -287 -229
9 185 174 -91 -106 201 214 -439 -400 -258 -224 -185
53 195 140 -96 -80 181 243 -336 -278 -209 -195 -175
151 239 87 -123 -41 169 252 -244 -170 -117 -126 -131
141 278 136 -193 32 164 242 -136 -48 -29 -68 -107
146 346 198 -208 3 208 276 0 90 82 14 -58
161 424 262 -245 -24 274 344 141 232 200 102 5
136 473 335 -291 -48 345 359 200 334 307 180 54
136 536 398 -303 -97 406 338 214 407 409 263 118
146 590 442 -335 -129 469 332 263 495 483 326 171
117 610 491 -367 -146 518 332 317 582 569 390 210
151 683 530 -362 -185 552 313 292 616 652 453 264
170 707 535 -417 -187 608 287 253 626 691 492 288
146 707 559 -438 -180 623 278 243 655 716 517 308
161 751 589 -426 -204 635 258 218 660 755 556 342
131 741 608 -456 -212 672 252 218 675 774 570 357
122 746 623 -436 -236 677 251 233 712 798 595 371
136 771 633 -434 -248 686 237 233 722 832 619 398
122 756 633 -453 -246 703 241 243 736 847 634 408
158 786 627 -438 -253 696 240 252 751 866 649 417
187 820 632 -470 -233 708 226 238 746 881 663 422
158 806 646 -502 -221 728 236 246 761 876 658 417
158 811 651 -480 -243 728 236 256 774 895 676 432
158 806 646 -482 -245 733 235 251 774 905 686 451
128 767 637 -480 -243 728 234 251 784 910 690 451
133 781 646 -446 -252 703 224 246 779 920 695 456
138 796 656 -456 -255 716 223 242 774 914 695 456
143 801 656 -465 -257 728 228 246 784 914 690 447
187 840 651 -470 -255 730 218 242 782 919 700 456
177 835 656 -512 -230 747 223 246 787 919 695 457
163 820 656 -504 -238 747 227 261 802 929 705 462
167 825 656 -490 -245 740 226 256 802 943 725 477
128 791 661 -495 -243 742 226 261 806 943 725 477
143 801 656 -458 -264 728 226 261 811 948 725 482
158 821 661 -470 -255 730 220 251 805 953 730 482
138 812 671 -487 -249 742 220 256 815 948 720 472
182 856 671 -473 -263 742 215 255 815 958 730 477
197 860 661 -517 -242 764 219 255 820 958 725 477
177 836 656 -526 -229 762 224 270 835 963 730 477
192 860 666 -504 -237 747 223 270 838 977 744 492
158 831 671 -524 -234 764 218 265 838 977 749 494
148 816 666 -492 -254 752 222 275 847 982 749 494
182 836 651 -480 -256 742 217 265 843 991 754 503
167 826 656 -507 -232 745 217 270 843 981 749 494
182 856 671 -495 -242 742 217 270 852 986 754 489
206 880 671 -517 -242 764 216 270 846 996 754 494
192 865 671 -541 -229 777 220 280 861 991 754 489
192 870 676 -526 -237 769 220 284 871 1005 769 498
197 865 666 -529 -239 774 220 289 871 1019 778 513
159 836 676 -529 -232 767 224 294 881 1019 778 513
159 846 685 -497 -256 757 214 294 881 1034 788 518
168 860 690 -501 -261 767 214 289 879 1034 783 513
188 860 671 -514 -259 777 218 289 883 1034 782 504
222 899 676 -523 -239 767 207 289 883 1039 787 509
203 895 690 -560 -224 789 212 294 893 1039 787 504
193 885 690 -548 -242 794 217 309 913 1053 797 509
207 895 685 -538 -246 789 211 309 913 1073 821 529
168 856 685 -550 -237 791 211 314 921 1072 821 529
168 860 690 -511 -256 772 216 319 926 1087 831 538
178 885 705 -514 -259 777 211 308 921 1092 836 543
173 880 705 -531 -261 796 210 313 931 1092 831 529
222 914 690 -526 -263 794 209 318 941 1101 841 538
222 924 700 -567 -232 803 204 318 941 1106 846 543
193 904 710 -572 -237 813 208 332 959 1111 851 543
207 924 715 -548 -256 808 203 332 963 1135 870 565
173 890 715 -565 -251 821 208 342 973 1140 875 575
164 875 710 -531 -268 803 208 351 988 1150 890 579
188 899 710 -519 -271 794 197 341 983 1165 899 589
173 895 720 -543 -259 806 196 346 987 1165 894 579
198 924 724 -533 -271 808 196 351 997 1170 899 584
212 948 734 -560 -261 825 196 351 1001 1179 914 594
207 934 724 -580 -259 843 195 365 1021 1184 914 594
222 948 724 -570 -256 830 195 375 1031 1209 938 609
212 943 729 -584 -249 838 200 380 1036 1217 948 619
178 914 734 -577 -256 838 199 390 1058 1227 958 623
198 924 724 -545 -276 825 184 395 1063 1247 977 639
203 938 734 -560 -261 825 188 395 1063 1252 977 639
198 938 739 -570 -263 838 188 404 1073 1256 982 634
237 987 749 -567 -268 840 182 409 1078 1265 992 644
229 983 753 -611 -254 869 187 419 1092 1275 997 644
229 969 738 -604 -260 869 192 439 1116 1285 1012 654
239 988 748 -597 -253 855 192 447 1120 1314 1036 678
205 949 743 -611 -253 869 191 457 1140 1319 1044 678
209 959 748 -575 -267 847 190 467 1150 1334 1053 688
219 979 758 -582 -267 855 180 467 1155 1348 1068 702
209 974 762 -597 -267 869 190 482 1169 1348 1068 693
263 1018 753 -589 -275 869 184 496 1177 1363 1078 702
263 1027 762 -638 -243 886 184 506 1187 1373 1093 709
249 1013 762 -644 -248 896 194 525 1206 1381 1097 709
253 1032 777 -629 -255 889 193 540 1221 1401 1122 734
209 998 787 -642 -260 906 197 550 1226 1411 1132 744
209 988 777 -603 -287 894 202 569 1245 1420 1141 748
234 1013 777 -598 -282 884 197 574 1239 1435 1156 758
224 1008 782 -622 -270 896 201 584 1244 1430 1151 753
253 1037 782 -615 -277 896 201 599 1259 1435 1156 753
268 1052 782 -644 -262 911 201 608 1259 1445 1166 758
253 1037 782 -659 -255 918 210 628 1274 1440 1161 758
253 1042 787 -644 -262 911 219 647 1281 1455 1175 768
249 1037 787 -646 -265 916 218 657 1281 1459 1185 779
214 1008 792 -642 -267 913 233 672 1296 1455 1180 779
219 1018 797 -610 -287 901 232 682 1291 1459 1190 788
244 1022 777 -617 -287 908 232 682 1281 1455 1185 784
244 1027 782 -632 -265 901 242 696 1291 1445 1175 774
263 1057 792 -634 -267 906 237 701 1280 1445 1180 774
249 1052 801 -659 -262 925 250 715 1285 1434 1171 769
234 1037 801 -649 -275 928 259 729 1290 1429 1171 769
253 1052 797 -634 -282 921 259 729 1280 1434 1175 779
219 1008 787 -651 -270 925 269 739 1280 1419 1166 774
214 1003 787 -612 -282 899 273 744 1280 1419 1166 779
235 1028 792 -607 -284 896 273 739 1259 1409 1161 779
210 1009 797 -629 -276 911 278 744 1254 1384 1141 761
245 1043 797 -607 -291 904 277 743 1244 1379 1141 756
250 1053 801 -642 -274 921 281 743 1234 1370 1131 751
225 1023 797 -649 -274 928 290 753 1239 1355 1116 742
250 1038 787 -622 -283 911 290 748 1230 1355 1121 756
201 1004 801 -642 -266 913 294 748 1219 1340 1111 751
171 980 806 -600 -298 904 299 748 1214 1326 1101 742
201 994 792 -573 -315 894 294 733 1190 1321 1092 742
201 980 777 -595 -293 894 299 728 1175 1291 1067 722
206 999 792 -588 -286 879 298 719 1165 1276 1048 707
230 1019 787 -600 -291 896 297 709 1148 1261 1038 698
215 989 772 -622 -276 904 307 709 1144 1237 1013 684
206 984 777 -600 -276 882 307 704 1139 1232 1009 684
215 975 758 -593 -283 882 316 694 1124 1217 1004 679
171 927 753 -593 -269 867 320 689 1114 1203 979 665
162 927 762 -548 -287 841 316 670 1095 1193 970 660
171 932 758 -544 -297 846 315 654 1069 1168 945 640
191 932 738 -551 -290 846 318 644 1060 1149 921 621
201 956 753 -561 -270 836 309 630 1045 1134 911 611
181 937 753 -578 -273 856 314 620 1035 1115 891 596
191 917 723 -558 -282 846 317 610 1035 1110 882 591
196 932 733 -553 -263 822 313 591 1016 1105 882 596
157 883 723 -563 -265 834 313 581 1009 1090 862 582
152 873 719 -519 -280 804 303 566 1004 1081 857 579
157 883 723 -512 -280 797 302 547 980 1076 848 574
147 868 719 -519 -280 804 306 537 975 1055 828 554
196 902 704 -507 -282 795 296 522 965 1055 818 545
196 907 709 -548 -251 804 290 508 950 1041 808 540
176 883 704 -551 -253 809 295 503 954 1036 799 525
188 893 704 -529 -260 795 290 498 949 1041 804 535
159 859 699 -539 -256 800 290 488 940 1035 799 535
134 844 709 -507 -268 780 294 479 940 1030 794 525
159 863 704 -487 -285 778 278 459 920 1035 792 530
164 849 684 -509 -270 785 278 449 915 1015 777 510
173 873 699 -504 -258 768 278 444 913 1015 767 506
188 893 704 -522 -260 787 267 430 903 1015 772 507
183 878 694 -539 -256 800 272 430 908 1010 763 497
183 888 704 -529 -253 787 272 425 913 1020 772 507
169 873 704 -534 -258 797 271 420 908 1025 772 511
154 839 684 -519 -265 790 271 419 917 1025 772 507
154 844 689 -495 -263 763 261 404 907 1035 782 516
159 854 694 -497 -265 768 256 390 893 1029 772 507
169 863 694 -504 -265 775 255 390 897 1019 767 497
208 898 689 -514 -260 780 250 380 893 1029 772 502
198 893 694 -551 -239 795 250 375 897 1024 772 497
183 873 689 -544 -246 795 250 380 905 1029 772 502
178 888 709 -526 -251 783 244 374 905 1048 792 518
144 849 704 -531 -263 800 243 374 905 1048 792 513
159 849 689 -495 -278 778 243 369 910 1058 797 523
169 873 704 -502 -263 770 233 359 895 1058 802 523
154 863 709 -519 -265 790 232 355 900 1053 787 509
203 902 699 -507 -275 787 222 350 899 1058 792 509
203 907 704 -551 -246 802 222 350 899 1058 797 513
173 888 714 -554 -248 807 231 359 914 1063 797 513
203 907 704 -530 -268 802 225 359 914 1078 811 528
178 873 694 -554 -248 807 225 355 914 1078 816 533
164 859 694 -525 -256 785 225 355 924 1082 821 533
183 883 699 -510 -263 778 210 345 907 1086 826 538
173 873 699 -532 -256 792 210 345 907 1077 816 529
184 899 713 -523 -260 787 210 340 912 1082 816 524
213 923 708 -540 -262 807 205 335 907 1082 821 529
209 903 693 -566 -245 817 214 344 917 1081 816 524
199 908 708 -554 -240 800 213 349 922 1090 830 534
189 903 713 -552 -252 809 208 344 911 1095 835 544
174 869 693 -545 -259 809 216 349 921 1095 835 539
179 884 703 -520 -257 783 207 339 916 1100 840 549
184 884 698 -530 -259 795 202 334 906 1095 835 544
174 884 708 -532 -255 792 207 334 906 1085 825 529
204 923 718 -527 -264 797 196 329 899 1090 830 534
194 913 718 -562 -255 822 200 329 899 1081 825 531
194 899 703 -552 -259 817 210 344 909 1085 825 536
209 913 703 -545 -252 802 205 339 904 1095 835 551
170 869 698 -559 -245 809 204 339 904 1084 830 546
170 874 703 -518 -262 785 204 334 904 1089 830 546
184 889 703 -520 -264 790 199 324 888 1080 830 546
174 874 698 -535 -257 797 203 329 893 1070 815 526
213 918 703 -523 -259 787 193 324 888 1070 815 531
209 918 708 -564 -242 812 192 319 879 1065 810 526
199 899 698 -562 -247 814 202 334 888 1055 805 521
213 918 703 -547 -247 800 201 329 888 1060 815 536
179 884 703 -564 -242 812 201 329 882 1055 810 531
150 855 703 -530 -259 795 206 334 886 1055 810 532
160 879 718 -501 -274 780 196 324 867 1060 815 542
155 869 713 -518 -277 800 200 314 857 1045 796 522
189 894 703 -510 -277 792 199 313 857 1031 786 513
218 918 698 -540 -255 800 194 313 847 1031 786 513
199 899 698 -566 -238 809 199 318 851 1021 776 503
209 899 688 -547 -247 800 203 323 856 1020 786 513
194 889 693 -552 -238 795 203 318 851 1025 791 517
156 850 693 -540 -247 792 207 318 856 1020 781 513
156 851 692 -502 -267 773 202 313 846 1020 786 522
127 816 687 -502 -266 774 197 304 831 1010 776 513
122 816 692 -471 -278 755 196 303 831 1000 761 499
132 826 692 -469 -283 757 201 308 825 999 761 499
132 826 692 -478 -278 762 205 308 825 994 750 485
157 860 702 -478 -278 762 196 303 820 989 755 485
152 855 702 -508 -271 784 204 308 825 985 745 480
147 841 692 -503 -273 782 208 318 830 985 745 480
152 855 702 -493 -271 769 208 313 824 989 755 490
137 816 678 -503 -273 782 213 318 829 985 750 485
118 811 692 -476 -268 750 207 318 824 985 750 485
122 831 707 -464 -286 755 202 308 814 985 745 485
118 821 702 -476 -290 772 212 313 814 965 731 471
166 860 692 -469 -290 764 207 308 809 965 731 466
166 865 697 -513 -261 779 201 308 802 955 726 461
142 846 702 -515 -264 784 210 318 812 955 721 462
157 855 697 -493 -278 777 210 318 807 965 736 477
132 831 697 -505 -268 779 214 318 812 960 731 472
122 816 692 -481 -281 767 214 328 822 960 731 472
161 841 678 -469 -283 757 209 328 812 969 745 481
137 841 702 -500 -256 762 209 328 816 959 731 467
171 890 717 -488 -281 774 208 337 821 954 731 462
186 924 736 -530 -271 806 207 342 821 964 736 467
166 919 751 -554 -273 833 232 357 840 959 731 462
166 938 770 -542 -290 838 236 367 850 978 750 481
152 938 785 -552 -300 857 250 375 855 987 760 491
118 914 795 -544 -315 864 275 400 877 987 760 496
108 919 809 -515 -337 857 275 400 873 1007 779 508
132 933 800 -513 -349 867 274 395 868 997 765 503
132 929 795 -532 -332 869 274 400 873 992 760 488
166 963 795 -530 -329 864 273 400 868 997 765 498
162 974 809 -564 -312 882 273 395 862 987 755 488
133 969 834 -566 -321 894 262 380 852 983 750 483
138 988 848 -549 -348 904 242 345 832 978 750 493
123 954 829 -561 -353 921 237 316 818 963 744 493
128 939 809 -537 -350 894 228 306 818 957 749 498
138 939 800 -532 -338 877 212 296 808 967 754 503
138 920 780 -537 -328 872 201 277 791 957 744 493
162 949 785 -527 -319 852 177 257 772 947 739 494
167 954 785 -555 -309 869 172 243 757 933 735 489
153 934 780 -560 -307 872 176 233 748 918 720 480
172 949 775 -543 -311 860 171 228 748 908 720 484
148 915 765 -560 -299 864 166 213 733 908 720 489
138 891 751 -531 -307 843 170 223 742 903 715 489
158 895 736 -514 -304 823 174 233 747 908 725 499
153 876 722 -526 -287 818 188 252 756 913 720 489
197 901 702 -514 -282 801 198 267 776 913 720 484
241 926 682 -548 -249 803 192 272 776 928 725 489
211 906 692 -582 -218 806 202 286 795 928 725 484
201 906 702 -557 -237 801 202 286 793 952 749 504
182 901 717 -553 -247 806 202 276 784 951 754 511
172 862 687 -540 -264 811 221 290 798 941 744 506
172 848 673 -516 -254 777 229 300 803 951 754 511
162 857 692 -509 -247 762 220 290 793 961 759 511
158 853 692 -509 -262 777 223 290 788 946 744 496
167 872 702 -504 -264 774 219 286 783 940 739 491
167 872 702 -518 -264 789 228 281 773 931 725 477
148 843 692 -518 -264 789 233 266 758 916 710 462
153 848 692 -494 -269 769 227 261 753 897 695 462
104 794 687 -499 -266 772 231 256 748 897 695 462
109 789 678 -448 -288 742 221 251 742 887 691 452
150 813 663 -448 -281 735 212 232 717 882 681 448
135 799 663 -479 -254 740 216 232 717 858 656 424
164 833 668 -465 -262 733 211 227 717 858 656 424
169 843 673 -496 -249 752 211 227 717 853 654 424
150 823 673 -504 -249 760 219 242 732 853 654 424
155 838 682 -484 -259 750 224 242 731 866 669 439
130 809 678 -494 -262 762 223 247 736 871 674 439
121 789 668 -467 -271 745 233 256 750 871 674 439
140 809 668 -453 -271 730 222 247 736 881 684 448
121 799 678 -472 -262 740 227 246 736 871 669 434
135 818 682 -457 -276 740 227 250 741 876 669 429
155 838 682 -475 -271 752 222 241 729 876 674 429
150 828 678 -494 -262 762 231 250 739 866 664 426
140 828 687 -487 -262 755 235 255 743 876 669 431
106 823 717 -482 -271 760 240 255 743 876 674 431
57 794 736 -462 -303 772 259 270 753 876 669 426
77 818 741 -425 -337 767 268 270 743 871 659 421
106 833 726 -447 -330 782 273 259 728 842 625 397
116 833 717 -469 -308 782 268 274 772 827 606 377
223 867 643 -474 -298 777 243 288 840 891 659 406
296 838 541 -545 -208 757 227 303 938 1007 742 445
374 794 419 -567 -120 691 169 298 1035 1178 879 509
501 809 308 -584 -20 608 90 293 1143 1412 1108 641
550 779 230 -655 97 559 41 332 1302 1685 1372 782
579 853 274 -664 161 506 -32 332 1468 2032 1694 954
579 1028 449 -716 153 564 -80 337 1619 2388 2016 1130
526 1160 634 -803 66 740 -119 230 1692 2709 2299 1271
623 1067 445 -843 -52 899 -130 98 1731 2992 2553 1408
677 1038 362 -845 90 757 -131 -18 1784 3168 2694 1501
545 1067 523 -857 158 701 -73 1 1945 3363 2850 1593
458 941 481 -806 12 796 -127 -189 1852 3592 2963 1593
390 668 278 -699 -9 713 -166 -584 1408 3568 2943 1598
253 468 214 -528 57 474 -93 -780 1027 3143 2675 1496
161 375 213 -359 20 342 -35 -883 695 2650 2215 1218
29 370 340 -267 -24 296 125 -790 357 2006 1542 812
0 346 345 -198 -153 357 231 -800 -96 918 483 248
14 351 335 -172 -170 347 304 -780 -384 43 -195 -112
4 341 335 -181 -158 345 260 -917 -779 -248 -336 -224
9 312 301 -172 -163 340 196 -941 -838 -561 -473 -322
0 278 276 -159 -143 308 162 -844 -726 -546 -429 -302
-19 200 219 -137 -136 279 176 -678 -595 -429 -361 -268
-9 195 204 -89 -118 211 195 -541 -483 -336 -287 -229
9 185 174 -91 -106 201 214 -439 -400 -258 -224 -185
53 195 140 -96 -80 181 243 -336 -278 -209 -195 -175
151 239 87 -123 -41 169 252 -244 -170 -117 -126 -131
141 278 136 -193 32 164 242 -136 -48 -29 -68 -107
146 346 198 -208 3 208 276 0 90 82 14 -58
161 424 262 -245 -24 274 344 141 232 200 102 5
136 473 335 -291 -48 345 359 200 334 307 180 54
136 536 398 -303 -97 406 338 214 407 409 263 118
146 590 442 -335 -129 469 332 263 495 483 326 171
117 610 491 -367 -146 518 332 317 582 569 390 210
151 683 530 -362 -185 552 313 292 616 652 453 264
170 707 535 -417 -187 608 287 253 626 691 492 288
146 707 559 -438 -180 623 278 243 655 716 517 308
161 751 589 -426 -204 635 258 218 660 755 556 342
131 741 608 -456 -212 672 252 218 675 774 570 357
122 746 623 -436 -236 677 251 233 712 798 595 371
136 771 633 -434 -248 686 237 233 722 832 619 398
122 756 633 -453 -246 703 241 243 736 847 634 408
158 786 627 -438 -253 696 240 252 751 866 649 417
187 820 632 -470 -233 708 226 238 746 881 663 422
158 806 646 -502 -221 728 236 246 761 876 658 417
158 811 651 -480 -243 728 236 256 774 895 676 432
158 806 646 -482 -245 733 235 251 774 905 686 451
128 767 637 -480 -243 728 234 251 784 910 690 451
133 781 646 -446 -252 703 224 246 779 920 695 456
138 796 656 -456 -255 716 223 242 774 914 695 456
143 801 656 -465 -257 728 228 246 784 914 690 447
187 840 651 -470 -255 730 218 242 782 919 700 456
177 835 656 -512 -230 747 223 246 787 919 695 457
163 820 656 -504 -238 747 227 261 802 929 705 462
167 825 656 -490 -245 740 226 256 802 943 725 477
128 791 661 -495 -243 742 226 261 806 943 725 477
143 801 656 -458 -264 728 226 261 811 948 725 482
158 821 661 -470 -255 730 220 251 805 953 730 482
138 812 671 -487 -249 742 220 256 815 948 720 472
182 856 671 -473 -263 742 215 255 815 958 730 477
197 860 661 -517 -242 764 219 255 820 958 725 477
177 836 656 -526 -229 762 224 270 835 963 730 477
192 860 666 -504 -237 747 223 270 838 977 744 492
158 831 671 -524 -234 764 218 265 838 977 749 494
148 816 666 -492 -254 752 222 275 847 982 749 494
182 836 651 -480 -256 742 217 265 843 991 754 503
167 826 656 -507 -232 745 217 270 843 981 749 494
182 856 671 -495 -242 742 217 270 852 986 754 489
206 880 671 -517 -242 764 216 270 846 996 754 494
192 865 671 -541 -229 777 220 280 861 991 754 489
192 870 676 -526 -237 769 220 284 871 1005 769 498
197 865 666 -529 -239 774 220 289 871 1019 778 513
159 836 676 -529 -232 767 224 294 881 1019 778 513
159 846 685 -497 -256 757 214 294 881 1034 788 518
168 860 690 -501 -261 767 214 289 879 1034 783 513
188 860 671 -514 -259 777 218 289 883 1034 782 504
222 899 676 -523 -239 767 207 289 883 1039 787 509
203 895 690 -560 -224 789 212 294 893 1039 787 504
193 885 690 -548 -242 794 217 309 913 1053 797 509
207 895 685 -538 -246 789 211 309 913 1073 821 529
168 856 685 -550 -237 791 211 314 921 1072 821 529
168 860 690 -511 -256 772 216 319 926 1087 831 538
178 885 705 -514 -259 777 211 308 921 1092 836 543
173 880 705 -531 -261 796 210 313 931 1092 831 529
222 914 690 -526 -263 794 209 318 941 1101 841 538
222 924 700 -567 -232 803 204 318 941 1106 846 543
193 904 710 -572 -237 813 208 332 959 1111 851 543
207 924 715 -548 -256 808 203 332 963 1135 870 565
173 890 715 -565 -251 821 208 342 973 1140 875 575
164 875 710 -531 -268 803 208 351 988 1150 890 579
188 899 710 -519 -271 794 197 341 983 1165 899 589
173 895 720 -543 -259 806 196 346 987 1165 894 579
198 924 724 -533 -271 808 196 351 997 1170 899 584
212 948 734 -560 -261 825 196 351 1001 1179 914 594
207 934 724 -580 -259 843 195 365 1021 1184 914 594
222 948 724 -570 -256 830 195 375 1031 1209 938 609
212 943 729 -584 -249 838 200 380 1036 1217 948 619
178 914 734 -577 -256 838 199 390 1058 1227 958 623
198 924 724 -545 -276 825 184 395 1063 1247 977 639
203 938 734 -560 -261 825 188 395 1063 1252 977 639
198 938 739 -570 -263 838 188 404 1073 1256 982 634
237 987 749 -567 -268 840 182 409 1078 1265 992 644
229 983 753 -611 -254 869 187 419 1092 1275 997 644
229 969 738 -604 -260 869 192 439 1116 1285 1012 654
239 988 748 -597 -253 855 192 447 1120 1314 1036 678
205 949 743 -611 -253 869 191 457 1140 1319 1044 678
209 959 748 -575 -267 847 190 467 1150 1334 1053 688
219 979 758 -582 -267 855 180 467 1155 1348 1068 702
209 974 762 -597 -267 869 190 482 1169 1348 1068 693
263 1018 753 -589 -275 869 184 496 1177 1363 1078 702
263 1027 762 -638 -243 886 184 506 1187 1373 1093 709
249 1013 762 -644 -248 896 194 525 1206 1381 1097 709
253 1032 777 -629 -255 889 193 540 1221 1401 1122 734
209 998 787 -642 -260 906 197 550 1226 1411 1132 744
209 988 777 -603 -287 894 202 569 1245 1420 1141 748
234 1013 777 -598 -282 884 197 574 1239 1435 1156 758
224 1008 782 -622 -270 896 201 584 1244 1430 1151 753
253 1037 782 -615 -277 896 201 599 1259 1435 1156 753
268 1052 782 -644 -262 911 201 608 1259 1445 1166 758
253 1037 782 -659 -255 918 210 628 1274 1440 1161 758
253 1042 787 -644 -262 911 219 647 1281 1455 1175 768
249 1037 787 -646 -265 916 218 657 1281 1459 1185 779
214 1008 792 -642 -267 913 233 672 1296 1455 1180 779
219 1018 797 -610 -287 901 232 682 1291 1459 1190 788
244 1022 777 -617 -287 908 232 682 1281 1455 1185 784
244 1027 782 -632 -265 901 242 696 1291 1445 1175 774
263 1057 792 -634 -267 906 237 701 1280 1445 1180 774
249 1052 801 -659 -262 925 250 715 1285 1434 1171 769
234 1037 801 -649 -275 928 259 729 1290 1429 1171 769
253 1052 797 -634 -282 921 259 729 1280 1434 1175 779
219 1008 787 -651 -270 925 269 739 1280 1419 1166 774
214 1003 787 -612 -282 899 273 744 1280 1419 1166 779
235 1028 792 -607 -284 896 273 739 1259 1409 1161 779
210 1009 797 -629 -276 911 278 744 1254 1384 1141 761
245 1043 797 -607 -291 904 277 743 1244 1379 1141 756
250 1053 801 -642 -274 921 281 743 1234 1370 1131 751
225 1023 797 -649 -274 928 290 753 1239 1355 1116 742
250 1038 787 -622 -283 911 290 748 1230 1355 1121 756
201 1004 801 -642 -266 913 294 748 1219 1340 1111 751
171 980 806 -600 -298 904 299 748 1214 1326 1101 742
201 994 792 -573 -315 894 294 733 1190 1321 1092 742
201 980 777 -595 -293 894 299 728 1175 1291 1067 722
206 999 792 -588 -286 879 298 719 1165 1276 1048 707
230 1019 787 -600 -291 896 297 709 1148 1261 1038 698
215 989 772 -622 -276 904 307 709 1144 1237 1013 684
206 984 777 -600 -276 882 307 704 1139 1232 1009 684
215 975 758 -593 -283 882 316 694 1124 1217 1004 679
171 927 753 -593 -269 867 320 689 1114 1203 979 665
162 927 762 -548 -287 841 316 670 1095 1193 970 660
171 932 758 -544 -297 846 315 654 1069 1168 945 640
191 932 738 -551 -290 846 318 644 1060 1149 921 621
201 956 753 -561 -270 836 309 630 1045 1134 911 611
181 937 753 -578 -273 856 314 620 1035 1115 891 596
191 917 723 -558 -282 846 317 610 1035 1110 882 591
196 932 733 -553 -263 822 313 591 1016 1105 882 596
157 883 723 -563 -265 834 313 581 1009 1090 862 582
152 873 719 -519 -280 804 303 566 1004 1081 857 579
157 883 723 -512 -280 797 302 547 980 1076 848 574
147 868 719 -519 -280 804 306 537 975 1055 828 554
196 902 704 -507 -282 795 296 522 965 1055 818 545
196 907 709 -548 -251 804 290 508 950 1041 808 540
176 883 704 -551 -253 809 295 503 954 1036 799 525
188 893 704 -529 -260 795 290 498 949 1041 804 535
159 859 699 -539 -256 800 290 488 940 1035 799 535
134 844 709 -507 -268 780 294 479 940 1030 794 525
159 863 704 -487 -285 778 278 459 920 1035 792 530
164 849 684 -509 -270 785 278 449 915 1015 777 510
173 873 699 -504 -258 768 278 444 913 1015 767 506
188 893 704 -522 -260 787 267 430 903 1015 772 507
183 878 694 -539 -256 800 272 430 908 1010 763 497
183 888 704 -529 -253 787 272 425 913 1020 772 507
169 873 704 -534 -258 797 271 420 908 1025 772 511
154 839 684 -519 -265 790 271 419 917 1025 772 507
154 844 689 -495 -263 763 261 404 907 1035 782 516
159 854 694 -497 -265 768 256 390 893 1029 772 507
169 863 694 -504 -265 775 255 390 897 1019 767 497
208 898 689 -514 -260 780 250 380 893 1029 772 502
198 893 694 -551 -239 795 250 375 897 1024 772 497
183 873 689 -544 -246 795 250 380 905 1029 772 502
178 888 709 -526 -251 783 244 374 905 1048 792 518
144 849 704 -531 -263 800 243 374 905 1048 792 513
159 849 689 -495 -278 778 243 369 910 1058 797 523
169 873 704 -502 -263 770 233 359 895 1058 802 523
154 863 709 -519 -265 790 232 355 900 1053 787 509
203 902 699 -507 -275 787 222 350 899 1058 792 509
203 907 704 -551 -246 802 222 350 899 1058 797 513
173 888 714 -554 -248 807 231 359 914 1063 797 513
203 907 704 -530 -268 802 225 359 914 1078 811 528
178 873 694 -554 -248 807 225 355 914 1078 816 533
164 859 694 -525 -256 785 225 355 924 1082 821 533
183 883 699 -510 -263 778 210 345 907 1086 826 538
173 873 699 -532 -256 792 210 345 907 1077 816 529
184 899 713 -523 -260 787 210 340 912 1082 816 524
213 923 708 -540 -262 807 205 335 907 1082 821 529
209 903 693 -566 -245 817 214 344 917 1081 816 524
199 908 708 -554 -240 800 213 349 922 1090 830 534
189 903 713 -552 -252 809 208 344 911 1095 835 544
174 869 693 -545 -259 809 216 349 921 1095 835 539
179 884 703 -520 -257 783 207 339 916 1100 840 549
184 884 698 -530 -259 795 202 334 906 1095 835 544
174 884 708 -532 -255 792 207 334 906 1085 825 529
204 923 718 -527 -264 797 196 329 899 1090 830 534
194 913 718 -562 -255 822 200 329 899 1081 825 531
194 899 703 -552 -259 817 210 344 909 1085 825 536
209 913 703 -545 -252 802 205 339 904 1095 835 551
170 869 698 -559 -245 809 204 339 904 1084 830 546
170 874 703 -518 -262 785 204 334 904 1089 830 546
184 889 703 -520 -264 790 199 324 888 1080 830 546
174 874 698 -535 -257 797 203 329 893 1070 815 526
213 918 703 -523 -259 787 193 324 888 1070 815 531
209 918 708 -564 -242 812 192 319 879 1065 810 526
199 899 698 -562 -247 814 202 334 888 1055 805 521
213 918 703 -547 -247 800 201 329 888 1060 815 536
179 884 703 -564 -242 812 201 329 882 1055 810 531
150 855 703 -530 -259 795 206 334 886 1055 810 532
160 879 718 -501 -274 780 196 324 867 1060 815 542
155 869 713 -518 -277 800 200 314 857 1045 796 522
189 894 703 -510 -277 792 199 313 857 1031 786 513
218 918 698 -540 -255 800 194 313 847 1031 786 513
199 899 698 -566 -238 809 199 318 851 1021 776 503
209 899 688 -547 -247 800 203 323 856 1020 786 513
194 889 693 -552 -238 795 203 318 851 1025 791 517
156 850 693 -540 -247 792 207 318 856 1020 781 513
156 851 692 -502 -267 773 202 313 846 1020 786 522
127 816 687 -502 -266 774 197 304 831 1010 776 513
122 816 692 -471 -278 755 196 303 831 1000 761 499
132 826 692 -469 -283 757 201 308 825 999 761 499
132 826 692 -478 -278 762 205 308 825 994 750 485
157 860 702 -478 -278 762 196 303 820 989 755 485
152 855 702 -508 -271 784 204 308 825 985 745 480
147 841 692 -503 -273 782 208 318 830 985 745 480
152 855 702 -493 -271 769 208 313 824 989 755 490
137 816 678 -503 -273 782 213 318 829 985 750 485
118 811 692 -476 -268 750 207 318 824 985 750 485
122 831 707 -464 -286 755 202 308 814 985 745 485
118 821 702 -476 -290 772 212 313 814 965 731 471
166 860 692 -469 -290 764 207 308 809 965 731 466
166 865 697 -513 -261 779 201 308 802 955 726 461
142 846 702 -515 -264 784 210 318 812 955 721 462
157 855 697 -493 -278 777 210 318 807 965 736 477
132 831 697 -505 -268 779 214 318 812 960 731 472
122 816 692 -481 -281 767 214 328 822 960 731 472
161 841 678 -469 -283 757 209 328 812 969 745 481
137 841 702 -500 -256 762 209 328 816 959 731 467
171 890 717 -488 -281 774 208 337 821 954 731 462
186 924 736 -530 -271 806 207 342 821 964 736 467
166 919 751 -554 -273 833 232 357 840 959 731 462
166 938 770 -542 -290 838 236 367 850 978 750 481
152 938 785 -552 -300 857 250 375 855 987 760 491
118 914 795 -544 -315 864 275 400 877 987 760 496
108 919 809 -515 -337 857 275 400 873 1007 779 508
132 933 800 -513 -349 867 274 395 868 997 765 503
132 929 795 -532 -332 869 274 400 873 992 760 488
166 963 795 -530 -329 864 273 400 868 997 765 498
162 974 809 -564 -312 882 273 395 862 987 755 488
133 969 834 -566 -321 894 262 380 852 983 750 483
138 988 848 -549 -348 904 242 345 832 978 750 493
123 954 829 -561 -353 921 237 316 818 963 744 493
128 939 809 -537 -350 894 228 306 818 957 749 498
138 939 800 -532 -338 877 212 296 808 967 754 503
138 920 780 -537 -328 872 201 277 791 957 744 493
162 949 785 -527 -319 852 177 257 772 947 739 494
167 954 785 -555 -309 869 172 243 757 933 735 489
153 934 780 -560 -307 872 176 233 748 918 720 480
172 949 775 -543 -311 860 171 228 748 908 720 484
148 915 765 -560 -299 864 166 213 733 908 720 489
138 891 751 -531 -307 843 170 223 742 903 715 489
158 895 736 -514 -304 823 174 233 747 908 725 499
153 876 722 -526 -287 818 188 252 756 913 720 489
197 901 702 -514 -282 801 198 267 776 913 720 484
241 926 682 -548 -249 803 192 272 776 928 725 489
211 906 692 -582 -218 806 202 286 795 928 725 484
201 906 702 -557 -237 801 202 286 793 952 749 504
182 901 717 -553 -247 806 202 276 784 951 754 511
172 862 687 -540 -264 811 221 290 798 941 744 506
172 848 673 -516 -254 777 229 300 803 951 754 511
162 857 692 -509 -247 762 220 290 793 961 759 511
158 853 692 -509 -262 777 223 290 788 946 744 496
167 872 702 -504 -264 774 219 286 783 940 739 491
167 872 702 -518 -264 789 228 281 773 931 725 477
148 843 692 -518 -264 789 233 266 758 916 710 462
153 848 692 -494 -269 769 227 261 753 897 695 462
104 794 687 -499 -266 772 231 256 748 897 695 462
109 789 678 -448 -288 742 221 251 742 887 691 452
150 813 663 -448 -281 735 212 232 717 882 681 448
135 799 663 -479 -254 740 216 232 717 858 656 424
164 833 668 -465 -262 733 211 227 717 858 656 424
169 843 673 -496 -249 752 211 227 717 853 654 424
150 823 673 -504 -249 760 219 242 732 853 654 424
155 838 682 -484 -259 750 224 242 731 866 669 439
130 809 678 -494 -262 762 223 247 736 871 674 439
121 789 668 -467 -271 745 233 256 750 871 674 439
140 809 668 -453 -271 730 222 247 736 881 684 448
121 799 678 -472 -262 740 227 246 736 871 669 434
135 818 682 -457 -276 740 227 250 741 876 669 429
155 838 682 -475 -271 752 222 241 729 876 674 429
150 828 678 -494 -262 762 231 250 739 866 664 426
140 828 687 -487 -262 755 235 255 743 876 669 431
106 823 717 -482 -271 760 240 255 743 876 674 431
57 794 736 -462 -303 772 259 270 753 876 669 426
77 818 741 -425 -337 767 268 270 743 871 659 421
106 833 726 -447 -330 782 273 259 728 842 625 397
116 833 717 -469 -308 782 268 274 772 827 606 377
223 867 643 -474 -298 777 243 288 840 891 659 406
296 838 541 -545 -208 757 227 303 938 1007 742 445
374 794 419 -567 -120 691 169 298 1035 1178 879 509
501 809 308 -584 -20 608 90 293 1143 1412 1108 641
550 779 230 -655 97 559 41 332 1302 1685 1372 782
579 853 274 -664 161 506 -32 332 1468 2032 1694 954
579 1028 449 -716 153 564 -80 337 1619 2388 2016 1130
526 1160 634 -803 66 740 -119 230 1692 2709 2299 1271
623 1067 445 -843 -52 899 -130 98 1731 2992 2553 1408
677 1038 362 -845 90 757 -131 -18 1784 3168 2694 1501
545 1067 523 -857 158 701 -73 1 1945 3363 2850 1593
458 941 481 -806 12 796 -127 -189 1852 3592 2963 1593
390 668 278 -699 -9 713 -166 -584 1408 3568 2943 1598
253 468 214 -528 57 474 -93 -780 1027 3143 2675 1496
161 375 213 -359 20 342 -35 -883 695 2650 2215 1218
29 370 340 -267 -24 296 125 -790 357 2006 1542 812
0 346 345 -198 -153 357 231 -800 -96 918 483 248
14 351 335 -172 -170 347 304 -780 -384 43 -195 -112
4 341 335 -181 -158 345 260 -917 -779 -248 -336 -224
9 312 301 -172 -163 340 196 -941 -838 -561 -473 -322
0 278 276 -159 -143 308 162 -844 -726 -546 -429 -302
-19 200 219 -137 -136 279 176 -678 -595 -429 -361 -268
-9 195 204 -89 -118 211 195 -541 -483 -336 -287 -229
9 185 174 -91 -106 201 214 -439 -400 -258 -224 -185
53 195 140 -96 -80 181 243 -336 -278 -209 -195 -175
151 239 87 -123 -41 169 252 -244 -170 -117 -126 -131
141 278 136 -193 32 164 242 -136 -48 -29 -68 -107
146 346 198 -208 3 208 276 0 90 82 14 -58
161 424 262 -245 -24 274 344 141 232 200 102 5
136 473 335 -291 -48 345 359 200 334 307 180 54
136 536 398 -303 -97 406 338 214 407 409 263 118
146 590 442 -335 -129 469 332 263 495 483 326 171
117 610 491 -367 -146 518 332 317 582 569 390 210
151 683 530 -362 -185 552 313 292 616 652 453 264
170 707 535 -417 -187 608 287 253 626 691 492 288
146 707 559 -438 -180 623 278 243 655 716 517 308
161 751 589 -426 -204 635 258 218 660 755 556 342
131 741 608 -456 -212 672 252 218 675 774 570 357
122 746 623 -436 -236 677 251 233 712 798 595 371
136 771 633 -434 -248 686 237 233 722 832 619 398
122 756 633 -453 -246 703 241 243 736 847 634 408
158 786 627 -438 -253 696 240 252 751 866 649 417
187 820 632 -470 -233 708 226 238 746 881 663 422
158 806 646 -502 -221 728 236 246 761 876 658 417
158 811 651 -480 -243 728 236 256 774 895 676 432
158 806 646 -482 -245 733 235 251 774 905 686 451
128 767 637 -480 -243 728 234 251 784 910 690 451
133 781 646 -446 -252 703 224 246 779 920 695 456
138 796 656 -456 -255 716 223 242 774 914 695 456
143 801 656 -465 -257 728 228 246 784 914 690 447
187 840 651 -470 -255 730 218 242 782 919 700 456
177 835 656 -512 -230 747 223 246 787 919 695 457
163 820 656 -504 -238 747 227 261 802 929 705 462
167 825 656 -490 -245 740 226 256 802 943 725 477
128 791 661 -495 -243 742 226 261 806 943 725 477
143 801 656 -458 -264 728 226 261 811 948 725 482
158 821 661 -470 -255 730 220 251 805 953 730 482
138 812 671 -487 -249 742 220 256 815 948 720 472
182 856 671 -473 -263 742 215 255 815 958 730 477
197 860 661 -517 -242 764 219 255 820 958 725 477
177 836 656 -526 -229 762 224 270 835 963 730 477
192 860 666 -504 -237 747 223 270 838 977 744 492
158 831 671 -524 -234 764 218 265 838 977 749 494
148 816 666 -492 -254 752 222 275 847 982 749 494
182 836 651 -480 -256 742 217 265 843 991 754 503
167 826 656 -507 -232 745 217 270 843 981 749 494
182 856 671 -495 -242 742 217 270 852 986 754 489
206 880 671 -517 -242 764 216 270 846 996 754 494
192 865 671 -541 -229 777 220 280 861 991 754 489
192 870 676 -526 -237 769 220 284 871 1005 769 498
197 865 666 -529 -239 774 220 289 871 1019 778 513
159 836 676 -529 -232 767 224 294 881 1019 778 513
159 846 685 -497 -256 757 214 294 881 1034 788 518
168 860 690 -501 -261 767 214 289 879 1034 783 513
188 860 671 -514 -259 777 218 289 883 1034 782 504
222 899 676 -523 -239 767 207 289 883 1039 787 509
203 895 690 -560 -224 789 212 294 893 1039 787 504
193 885 690 -548 -242 794 217 309 913 1053 797 509
207 895 685 -538 -246 789 211 309 913 1073 821 529
168 856 685 -550 -237 791 211 314 921 1072 821 529
168 860 690 -511 -256 772 216 319 926 1087 831 538
178 885 705 -514 -259 777 211 308 921 1092 836 543
173 880 705 -531 -261 796 210 313 931 1092 831 529
222 914 690 -526 -263 794 209 318 941 1101 841 538
222 924 700 -567 -232 803 204 318 941 1106 846 543
193 904 710 -572 -237 813 208 332 959 1111 851 543
207 924 715 -548 -256 808 203 332 963 1135 870 565
173 890 715 -565 -251 821 208 342 973 1140 875 575
164 875 710 -531 -268 803 208 351 988 1150 890 579
188 899 710 -519 -271 794 197 341 983 1165 899 589
173 895 720 -543 -259 806 196 346 987 1165 894 579
198 924 724 -533 -271 808 196 351 997 1170 899 584
212 948 734 -560 -261 825 196 351 1001 1179 914 594
207 934 724 -580 -259 843 195 365 1021 1184 914 594
222 948 724 -570 -256 830 195 375 1031 1209 938 609
212 943 729 -584 -249 838 200 380 1036 1217 948 619
178 914 734 -577 -256 838 199 390 1058 1227 958 623
198 924 724 -545 -276 825 184 395 1063 1247 977 639
203 938 734 -560 -261 825 188 395 1063 1252 977 639
198 938 739 -570 -263 838 188 404 1073 1256 982 634
237 987 749 -567 -268 840 182 409 1078 1265 992 644
229 983 753 -611 -254 869 187 419 1092 1275 997 644
229 969 738 -604 -260 869 192 439 1116 1285 1012 654
239 988 748 -597 -253 855 192 447 1120 1314 1036 678
205 949 743 -611 -253 869 191 457 1140 1319 1044 678
209 959 748 -575 -267 847 190 467 1150 1334 1053 688
219 979 758 -582 -267 855 180 467 1155 1348 1068 702
209 974 762 -597 -267 869 190 482 1169 1348 1068 693
263 1018 753 -589 -275 869 184 496 1177 1363 1078 702
263 1027 762 -638 -243 886 184 506 1187 1373 1093 709
249 1013 762 -644 -248 896 194 525 1206 1381 1097 709
253 1032 777 -629 -255 889 193 540 1221 1401 1122 734
209 998 787 -642 -260 906 197 550 1226 1411 1132 744
209 988 777 -603 -287 894 202 569 1245 1420 1141 748
234 1013 777 -598 -282 884 197 574 1239 1435 1156 758
224 1008 782 -622 -270 896 201 584 1244 1430 1151 753
253 1037 782 -615 -277 896 201 599 1259 1435 1156 753
268 1052 782 -644 -262 911 201 608 1259 1445 1166 758
253 1037 782 -659 -255 918 210 628 1274 1440 1161 758
253 1042 787 -644 -262 911 219 647 1281 1455 1175 768
249 1037 787 -646 -265 916 218 657 1281 1459 1185 779
214 1008 792 -642 -267 913 233 672 1296 1455 1180 779
219 1018 797 -610 -287 901 232 682 1291 1459 1190 788
244 1022 777 -617 -287 908 232 682 1281 1455 1185 784
244 1027 782 -632 -265 901 242 696 1291 1445 1175 774
263 1057 792 -634 -267 906 237 701 1280 1445 1180 774
249 1052 801 -659 -262 925 250 715 1285 1434 1171 769
234 1037 801 -649 -275 928 259 729 1290 1429 1171 769
253 1052 797 -634 -282 921 259 729 1280 1434 1175 779
219 1008 787 -651 -270 925 269 739 1280 1419 1166 774
214 1003 787 -612 -282 899 273 744 1280 1419 1166 779
235 1028 792 -607 -284 896 273 739 1259 1409 1161 779
210 1009 797 -629 -276 911 278 744 1254 1384 1141 761
245 1043 797 -607 -291 904 277 743 1244 1379 1141 756
250 1053 801 -642 -274 921 281 743 1234 1370 1131 751
225 1023 797 -649 -274 928 290 753 1239 1355 1116 742
250 1038 787 -622 -283 911 290 748 1230 1355 1121 756
201 1004 801 -642 -266 913 294 748 1219 1340 1111 751
171 980 806 -600 -298 904 299 748 1214 1326 1101 742
201 994 792 -573 -315 894 294 733 1190 1321 1092 742
201 980 777 -595 -293 894 299 728 1175 1291 1067 722
206 999 792 -588 -286 879 298 719 1165 1276 1048 707
230 1019 787 -600 -291 896 297 709 1148 1261 1038 698
215 989 772 -622 -276 904 307 709 1144 1237 1013 684
206 984 777 -600 -276 882 307 704 1139 1232 1009 684
215 975 758 -593 -283 882 316 694 1124 1217 1004 679
171 927 753 -593 -269 867 320 689 1114 1203 979 665
162 927 762 -548 -287 841 316 670 1095 1193 970 660
171 932 758 -544 -297 846 315 654 1069 1168 945 640
191 932 738 -551 -290 846 318 644 1060 1149 921 621
201 956 753 -561 -270 836 309 630 1045 1134 911 611
181 937 753 -578 -273 856 314 620 1035 1115 891 596
191 917 723 -558 -282 846 317 610 1035 1110 882 591
196 932 733 -553 -263 822 313 591 1016 1105 882 596
157 883 723 -563 -265 834 313 581 1009 1090 862 582
152 873 719 -519 -280 804 303 566 1004 1081 857 579
157 883 723 -512 -280 797 302 547 980 1076 848 574
147 868 719 -519 -280 804 306 537 975 1055 828 554
196 902 704 -507 -282 795 296 522 965 1055 818 545
196 907 709 -548 -251 804 290 508 950 1041 808 540
176 883 704 -551 -253 809 295 503 954 1036 799 525
188 893 704 -529 -260 795 290 498 949 1041 804 535
159 859 699 -539 -256 800 290 488 940 1035 799 535
134 844 709 -507 -268 780 294 479 940 1030 794 525
159 863 704 -487 -285 778 278 459 920 1035 792 530
164 849 684 -509 -270 785 278 449 915 1015 777 510
173 873 699 -504 -258 768 278 444 913 1015 767 506
188 893 704 -522 -260 787 267 430 903 1015 772 507
183 878 694 -539 -256 800 272 430 908 1010 763 497
183 888 704 -529 -253 787 272 425 913 1020 772 507
169 873 704 -534 -258 797 271 420 908 1025 772 511
154 839 684 -519 -265 790 271 419 917 1025 772 507
154 844 689 -495 -263 763 261 404 907 1035 782 516
159 854 694 -497 -265 768 256 390 893 1029 772 507
169 863 694 -504 -265 775 255 390 897 1019 767 497
208 898 689 -514 -260 780 250 380 893 1029 772 502
198 893 694 -551 -239 795 250 375 897 1024 772 497
183 873 689 -544 -246 795 250 380 905 1029 772 502
178 888 709 -526 -251 783 244 374 905 1048 792 518
144 849 704 -531 -263 800 243 374 905 1048 792 513
159 849 689 -495 -278 778 243 369 910 1058 797 523
169 873 704 -502 -263 770 233 359 895 1058 802 523
154 863 709 -519 -265 790 232 355 900 1053 787 509
203 902 699 -507 -275 787 222 350 899 1058 792 509
203 907 704 -551 -246 802 222 350 899 1058 797 513
173 888 714 -554 -248 807 231 359 914 1063 797 513
203 907 704 -530 -268 802 225 359 914 1078 811 528
178 873 694 -554 -248 807 225 355 914 1078 816 533
164 859 694 -525 -256 785 225 355 924 1082 821 533
183 883 699 -510 -263 778 210 345 907 1086 826 538
173 873 699 -532 -256 792 210 345 907 1077 816 529
184 899 713 -523 -260 787 210 340 912 1082 816 524
213 923 708 -540 -262 807 205 335 907 1082 821 529
209 903 693 -566 -245 817 214 344 917 1081 816 524
199 908 708 -554 -240 800 213 349 922 1090 830 534
189 903 713 -552 -252 809 208 344 911 1095 835 544
174 869 693 -545 -259 809 216 349 921 1095 835 539
179 884 703 -520 -257 783 207 339 916 1100 840 549
184 884 698 -530 -259 795 202 334 906 1095 835 544
174 884 708 -532 -255 792 207 334 906 1085 825 529
204 923 718 -527 -264 797 196 329 899 1090 830 534
194 913 718 -562 -255 822 200 329 899 1081 825 531
194 899 703 -552 -259 817 210 344 909 1085 825 536
209 913 703 -545 -252 802 205 339 904 1095 835 551
170 869 698 -559 -245 809 204 339 904 1084 830 546
170 874 703 -518 -262 785 204 334 904 1089 830 546
184 889 703 -520 -264 790 199 324 888 1080 830 546
174 874 698 -535 -257 797 203 329 893 1070 815 526
213 918 703 -523 -259 787 193 324 888 1070 815 531
209 918 708 -564 -242 812 192 319 879 1065 810 526
199 899 698 -562 -247 814 202 334 888 1055 805 521
213 918 703 -547 -247 800 201 329 888 1060 815 536
179 884 703 -564 -242 812 201 329 882 1055 810 531
150 855 703 -530 -259 795 206 334 886 1055 810 532
160 879 718 -501 -274 780 196 324 867 1060 815 542
155 869 713 -518 -277 800 200 314 857 1045 796 522
189 894 703 -510 -277 792 199 313 857 1031 786 513
218 918 698 -540 -255 800 194 313 847 1031 786 513
199 899 698 -566 -238 809 199 318 851 1021 776 503
209 899 688 -547 -247 800 203 323 856 1020 786 513
194 889 693 -552 -238 795 203 318 851 1025 791 517
156 850 693 -540 -247 792 207 318 856 1020 781 513
156 851 692 -502 -267 773 202 313 846 1020 786 522
127 816 687 -502 -266 774 197 304 831 1010 776 513
122 816 692 -471 -278 755 196 303 831 1000 761 499
132 826 692 -469 -283 757 201 308 825 999 761 499
132 826 692 -478 -278 762 205 308 825 994 750 485
157 860 702 -478 -278 762 196 303 820 989 755 485
152 855 702 -508 -271 784 204 308 825 985 745 480
147 841 692 -503 -273 782 208 318 830 985 745 480
152 855 702 -493 -271 769 208 313 824 989 755 490
137 816 678 -503 -273 782 213 318 829 985 750 485
118 811 692 -476 -268 750 207 318 824 985 750 485
122 831 707 -464 -286 755 202 308 814 985 745 485
118 821 702 -476 -290 772 212 313 814 965 731 471
166 860 692 -469 -290 764 207 308 809 965 731 466
166 865 697 -513 -261 779 201 308 802 955 726 461
142 846 702 -515 -264 784 210 318 812 955 721 462
157 855 697 -493 -278 777 210 318 807 965 736 477
132 831 697 -505 -268 779 214 318 812 960 731 472
122 816 692 -481 -281 767 214 328 822 960 731 472
161 841 678 -469 -283 757 209 328 812 969 745 481
137 841 702 -500 -256 762 209 328 816 959 731 467
171 890 717 -488 -281 774 208 337 821 954 731 462
186 924 736 -530 -271 806 207 342 821 964 736 467
166 919 751 -554 -273 833 232 357 840 959 731 462
166 938 770 -542 -290 838 236 367 850 978 750 481
152 938 785 -552 -300 857 250 375 855 987 760 491
118 914 795 -544 -315 864 275 400 877 987 760 496
108 919 809 -515 -337 857 275 400 873 1007 779 508
132 933 800 -513 -349 867 274 395 868 997 765 503
132 929 795 -532 -332 869 274 400 873 992 760 488
166 963 795 -530 -329 864 273 400 868 997 765 498
162 974 809 -564 -312 882 273 395 862 987 755 488
133 969 834 -566 -321 894 262 380 852 983 750 483
138 988 848 -549 -348 904 242 345 832 978 750 493
123 954 829 -561 -353 921 237 316 818 963 744 493
128 939 809 -537 -350 894 228 306 818 957 749 498
138 939 800 -532 -338 877 212 296 808 967 754 503
138 920 780 -537 -328 872 201 277 791 957 744 493
162 949 785 -527 -319 852 177 257 772 947 739 494
167 954 785 -555 -309 869 172 243 757 933 735 489
153 934 780 -560 -307 872 176 233 748 918 720 480
172 949 775 -543 -311 860 171 228 748 908 720 484
148 915 765 -560 -299 864 166 213 733 908 720 489
138 891 751 -531 -307 843 170 223 742 903 715 489
158 895 736 -514 -304 823 174 233 747 908 725 499
153 876 722 -526 -287 818 188 252 756 913 720 489
197 901 702 -514 -282 801 198 267 776 913 720 484
241 926 682 -548 -249 803 192 272 776 928 725 489
211 906 692 -582 -218 806 202 286 795 928 725 484
201 906 702 -557 -237 801 202 286 793 952 749 504
182 901 717 -553 -247 806 202 276 784 951 754 511
172 862 687 -540 -264 811 221 290 798 941 744 506
172 848 673 -516 -254 777 229 300 803 951 754 511
162 857 692 -509 -247 762 220 290 793 961 759 511
158 853 692 -509 -262 777 223 290 788 946 744 496
167 872 702 -504 -264 774 219 286 783 940 739 491
167 872 702 -518 -264 789 228 281 773 931 725 477
148 843 692 -518 -264 789 233 266 758 916 710 462
153 848 692 -494 -269 769 227 261 753 897 695 462
104 794 687 -499 -266 772 231 256 748 897 695 462
109 789 678 -448 -288 742 221 251 742 887 691 452
150 813 663 -448 -281 735 212 232 717 882 681 448
135 799 663 -479 -254 740 216 232 717 858 656 424
164 833 668 -465 -262 733 211 227 717 858 656 424
169 843 673 -496 -249 752 211 227 717 853 654 424
150 823 673 -504 -249 760 219 242 732 853 654 424
155 838 682 -484 -259 750 224 242 731 866 669 439
130 809 678 -494 -262 762 223 247 736 871 674 439
121 789 668 -467 -271 745 233 256 750 871 674 439
140 809 668 -453 -271 730 222 247 736 881 684 448
121 799 678 -472 -262 740 227 246 736 871 669 434
135 818 682 -457 -276 740 227 250 741 876 669 429
155 838 682 -475 -271 752 222 241 729 876 674 429
150 828 678 -494 -262 762 231 250 739 866 664 426
140 828 687 -487 -262 755 235 255 743 876 669 431
106 823 717 -482 -271 760 240 255 743 876 674 431
57 794 736 -462 -303 772 259 270 753 876 669 426
77 818 741 -425 -337 767 268 270 743 871 659 421
106 833 726 -447 -330 782 273 259 728 842 625 397
116 833 717 -469 -308 782 268 274 772 827 606 377
223 867 643 -474 -298 777 243 288 840 891 659 406
296 838 541 -545 -208 757 227 303 938 1007 742 445
374 794 419 -567 -120 691 169 298 1035 1178 879 509
501 809 308 -584 -20 608 90 293 1143 1412 1108 641
550 779 230 -655 97 559 41 332 1302 1685 1372 782
579 853 274 -664 161 506 -32 332 1468 2032 1694 954
579 1028 449 -716 153 564 -80 337 1619 2388 2016 1130
526 1160 634 -803 66 740 -119 230 1692 2709 2299 1271
623 1067 445 -843 -52 899 -130 98 1731 2992 2553 1408
677 1038 362 -845 90 757 -131 -18 1784 3168 2694 1501
545 1067 523 -857 158 701 -73 1 1945 3363 2850 1593
458 941 481 -806 12 796 -127 -189 1852 3592 2963 1593
390 668 278 -699 -9 713 -166 -584 1408 3568 2943 1598
253 468 214 -528 57 474 -93 -780 1027 3143 2675 1496
161 375 213 -359 20 342 -35 -883 695 2650 2215 1218
29 370 340 -267 -24 296 125 -790 357 2006 1542 812
0 346 345 -198 -153 357 231 -800 -96 918 483 248
14 351 335 -172 -170 347 304 -780 -384 43 -195 -112
4 341 335 -181 -158 345 260 -917 -779 -248 -336 -224
9 312 301 -172 -163 340 196 -941 -838 -561 -473 -322
0 278 276 -159 -143 308 162 -844 -726 -546 -429 -302
-19 200 219 -137 -136 279 176 -678 -595 -429 -361 -268
-9 195 204 -89 -118 211 195 -541 -483 -336 -287 -229
9 185 174 -91 -106 201 214 -439 -400 -258 -224 -185
53 195 140 -96 -80 181 243 -336 -278 -209 -195 -175
151 239 87 -123 -41 169 252 -244 -170 -117 -126 -131
141 278 136 -193 32 164 242 -136 -48 -29 -68 -107
146 346 198 -208 3 208 276 0 90 82 14 -58
161 424 262 -245 -24 274 344 141 232 200 102 5
136 473 335 -291 -48 345 359 200 334 307 180 54
136 536 398 -303 -97 406 338 214 407 409 263 118
146 590 442 -335 -129 469 332 263 495 483 326 171
117 610 491 -367 -146 518 332 317 582 569 390 210
151 683 530 -362 -185 552 313 292 616 652 453 264
170 707 535 -417 -187 608 287 253 626 691 492 288
146 707 559 -438 -180 623 278 243 655 716 517 308
161 751 589 -426 -204 635 258 218 660 755 556 342
131 741 608 -456 -212 672 252 218 675 774 570 357
122 746 623 -436 -236 677 251 233 712 798 595 371
136 771 633 -434 -248 686 237 233 722 832 619 398
122 756 633 -453 -246 703 241 243 736 847 634 408
158 786 627 -438 -253 696 240 252 751 866 649 417
187 820 632 -470 -233 708 226 238 746 881 663 422
158 806 646 -502 -221 728 236 246 761 876 658 417
158 811 651 -480 -243 728 236 256 774 895 676 432
158 806 646 -482 -245 733 235 251 774 905 686 451
128 767 637 -480 -243 728 234 251 784 910 690 451
133 781 646 -446 -252 703 224 246 779 920 695 456
138 796 656 -456 -255 716 223 242 774 914 695 456
143 801 656 -465 -257 728 228 246 784 914 690 447
187 840 651 -470 -255 730 218 242 782 919 700 456
177 835 656 -512 -230 747 223 246 787 919 695 457
163 820 656 -504 -238 747 227 261 802 929 705 462
167 825 656 -490 -245 740 226 256 802 943 725 477
128 791 661 -495 -243 742 226 261 806 943 725 477
143 801 656 -458 -264 728 226 261 811 948 725 482
158 821 661 -470 -255 730 220 251 805 953 730 482
138 812 671 -487 -249 742 220 256 815 948 720 472
182 856 671 -473 -263 742 215 255 815 958 730 477
197 860 661 -517 -242 764 219 255 820 958 725 477
177 836 656 -526 -229 762 224 270 835 963 730 477
192 860 666 -504 -237 747 223 270 838 977 744 492
158 831 671 -524 -234 764 218 265 838 977 749 494
148 816 666 -492 -254 752 222 275 847 982 749 494
182 836 651 -480 -256 742 217 265 843 991 754 503
167 826 656 -507 -232 745 217 270 843 981 749 494
182 856 671 -495 -242 742 217 270 852 986 754 489
206 880 671 -517 -242 764 216 270 846 996 754 494
192 865 671 -541 -229 777 220 280 861 991 754 489
192 870 676 -526 -237 769 220 284 871 1005 769 498
197 865 666 -529 -239 774 220 289 871 1019 778 513
159 836 676 -529 -232 767 224 294 881 1019 778 513
159 846 685 -497 -256 757 214 294 881 1034 788 518
168 860 690 -501 -261 767 214 289 879 1034 783 513
188 860 671 -514 -259 777 218 289 883 1034 782 504
222 899 676 -523 -239 767 207 289 883 1039 787 509
203 895 690 -560 -224 789 212 294 893 1039 787 504
193 885 690 -548 -242 794 217 309 913 1053 797 509
207 895 685 -538 -246 789 211 309 913 1073 821 529
168 856 685 -550 -237 791 211 314 921 1072 821 529
168 860 690 -511 -256 772 216 319 926 1087 831 538
178 885 705 -514 -259 777 211 308 921 1092 836 543
173 880 705 -531 -261 796 210 313 931 1092 831 529
222 914 690 -526 -263 794 209 318 941 1101 841 538
222 924 700 -567 -232 803 204 318 941 1106 846 543
193 904 710 -572 -237 813 208 332 959 1111 851 543
207 924 715 -548 -256 808 203 332 963 1135 870 565
173 890 715 -565 -251 821 208 342 973 1140 875 575
164 875 710 -531 -268 803 208 351 988 1150 890 579
188 899 710 -519 -271 794 197 341 983 1165 899 589
173 895 720 -543 -259 806 196 346 987 1165 894 579
198 924 724 -533 -271 808 196 351 997 1170 899 584
212 948 734 -560 -261 825 196 351 1001 1179 914 594
207 934 724 -580 -259 843 195 365 1021 1184 914 594
222 948 724 -570 -256 830 195 375 1031 1209 938 609
212 943 729 -584 -249 838 200 380 1036 1217 948 619
178 914 734 -577 -256 838 199 390 1058 1227 958 623
198 924 724 -545 -276 825 184 395 1063 1247 977 639
203 938 734 -560 -261 825 188 395 1063 1252 977 639
198 938 739 -570 -263 838 188 404 1073 1256 982 634
237 987 749 -567 -268 840 182 409 1078 1265 992 644
229 983 753 -611 -254 869 187 419 1092 1275 997 644
229 969 738 -604 -260 869 192 439 1116 1285 1012 654
239 988 748 -597 -253 855 192 447 1120 1314 1036 678
205 949 743 -611 -253 869 191 457 1140 1319 1044 678
209 959 748 -575 -267 847 190 467 1150 1334 1053 688
219 979 758 -582 -267 855 180 467 1155 1348 1068 702
209 974 762 -597 -267 869 190 482 1169 1348 1068 693
263 1018 753 -589 -275 869 184 496 1177 1363 1078 702
263 1027 762 -638 -243 886 184 506 1187 1373 1093 709
249 1013 762 -644 -248 896 194 525 1206 1381 1097 709
253 1032 777 -629 -255 889 193 540 1221 1401 1122 734
209 998 787 -642 -260 906 197 550 1226 1411 1132 744
209 988 777 -603 -287 894 202 569 1245 1420 1141 748
234 1013 777 -598 -282 884 197 574 1239 1435 1156 758
224 1008 782 -622 -270 896 201 584 1244 1430 1151 753
253 1037 782 -615 -277 896 201 599 1259 1435 1156 753
268 1052 782 -644 -262 911 201 608 1259 1445 1166 758
253 1037 782 -659 -255 918 210 628 1274 1440 1161 758
253 1042 787 -644 -262 911 219 647 1281 1455 1175 768
249 1037 787 -646 -265 916 218 657 1281 1459 1185 779
214 1008 792 -642 -267 913 233 672 1296 1455 1180 779
219 1018 797 -610 -287 901 232 682 1291 1459 1190 788
244 1022 777 -617 -287 908 232 682 1281 1455 1185 784
244 1027 782 -632 -265 901 242 696 1291 1445 1175 774
263 1057 792 -634 -267 906 237 701 1280 1445 1180 774
249 1052 801 -659 -262 925 250 715 1285 1434 1171 769
234 1037 801 -649 -275 928 259 729 1290 1429 1171 769
253 1052 797 -634 -282 921 259 729 1280 1434 1175 779
219 1008 787 -651 -270 925 269 739 1280 1419 1166 774
214 1003 787 -612 -282 899 273 744 1280 1419 1166 779
235 1028 792 -607 -284 896 273 739 1259 1409 1161 779
210 1009 797 -629 -276 911 278 744 1254 1384 1141 761
245 1043 797 -607 -291 904 277 743 1244 1379 1141 756
250 1053 801 -642 -274 921 281 743 1234 1370 1131 751
225 1023 797 -649 -274 928 290 753 1239 1355 1116 742
250 1038 787 -622 -283 911 290 748 1230 1355 1121 756
201 1004 801 -642 -266 913 294 748 1219 1340 1111 751
171 980 806 -600 -298 904 299 748 1214 1326 1101 742
201 994 792 -573 -315 894 294 733 1190 1321 1092 742
201 980 777 -595 -293 894 299 728 1175 1291 1067 722
206 999 792 -588 -286 879 298 719 1165 1276 1048 707
230 1019 787 -600 -291 896 297 709 1148 1261 1038 698
215 989 772 -622 -276 904 307 709 1144 1237 1013 684
206 984 777 -600 -276 882 307 704 1139 1232 1009 684
215 975 758 -593 -283 882 316 694 1124 1217 1004 679
171 927 753 -593 -269 867 320 689 1114 1203 979 665
162 927 762 -548 -287 841 316 670 1095 1193 970 660
171 932 758 -544 -297 846 315 654 1069 1168 945 640
191 932 738 -551 -290 846 318 644 1060 1149 921 621
201 956 753 -561 -270 836 309 630 1045 1134 911 611
181 937 753 -578 -273 856 314 620 1035 1115 891 596
191 917 723 -558 -282 846 317 610 1035 1110 882 591
196 932 733 -553 -263 822 313 591 1016 1105 882 596
157 883 723 -563 -265 834 313 581 1009 1090 862 582
152 873 719 -519 -280 804 303 566 1004 1081 857 579
157 883 723 -512 -280 797 302 547 980 1076 848 574
147 868 719 -519 -280 804 306 537 975 1055 828 554
196 902 704 -507 -282 795 296 522 965 1055 818 545
196 907 709 -548 -251 804 290 508 950 1041 808 540
176 883 704 -551 -253 809 295 503 954 1036 799 525
188 893 704 -529 -260 795 290 498 949 1041 804 535
159 859 699 -539 -256 800 290 488 940 1035 799 535
134 844 709 -507 -268 780 294 479 940 1030 794 525
159 863 704 -487 -285 778 278 459 920 1035 792 530
164 849 684 -509 -270 785 278 449 915 1015 777 510
173 873 699 -504 -258 768 278 444 913 1015 767 506
188 893 704 -522 -260 787 267 430 903 1015 772 507
183 878 694 -539 -256 800 272 430 908 1010 763 497
183 888 704 -529 -253 787 272 425 913 1020 772 507
169 873 704 -534 -258 797 271 420 908 1025 772 511
154 839 684 -519 -265 790 271 419 917 1025 772 507
154 844 689 -495 -263 763 261 404 907 1035 782 516
159 854 694 -497 -265 768 256 390 893 1029 772 507
169 863 694 -504 -265 775 255 390 897 1019 767 497
208 898 689 -514 -260 780 250 380 893 1029 772 502
198 893 694 -551 -239 795 250 375 897 1024 772 497
183 873 689 -544 -246 795 250 380 905 1029 772 502
178 888 709 -526 -251 783 244 374 905 1048 792 518
144 849 704 -531 -263 800 243 374 905 1048 792 513
159 849 689 -495 -278 778 243 369 910 1058 797 523
169 873 704 -502 -263 770 233 359 895 1058 802 523
154 863 709 -519 -265 790 232 355 900 1053 787 509
203 902 699 -507 -275 787 222 350 899 1058 792 509
203 907 704 -551 -246 802 222 350 899 1058 797 513
173 888 714 -554 -248 807 231 359 914 1063 797 513
203 907 704 -530 -268 802 225 359 914 1078 811 528
178 873 694 -554 -248 807 225 355 914 1078 816 533
164 859 694 -525 -256 785 225 355 924 1082 821 533
183 883 699 -510 -263 778 210 345 907 1086 826 538
173 873 699 -532 -256 792 210 345 907 1077 816 529
184 899 713 -523 -260 787 210 340 912 1082 816 524
213 923 708 -540 -262 807 205 335 907 1082 821 529
209 903 693 -566 -245 817 214 344 917 1081 816 524
199 908 708 -554 -240 800 213 349 922 1090 830 534
189 903 713 -552 -252 809 208 344 911 1095 835 544
174 869 693 -545 -259 809 216 349 921 1095 835 539
179 884 703 -520 -257 783 207 339 916 1100 840 549
184 884 698 -530 -259 795 202 334 906 1095 835 544
174 884 708 -532 -255 792 207 334 906 1085 825 529
204 923 718 -527 -264 797 196 329 899 1090 830 534
194 913 718 -562 -255 822 200 329 899 1081 825 531
194 899 703 -552 -259 817 210 344 909 1085 825 536
209 913 703 -545 -252 802 205 339 904 1095 835 551
170 869 698 -559 -245 809 204 339 904 1084 830 546
170 874 703 -518 -262 785 204 334 904 1089 830 546
184 889 703 -520 -264 790 199 324 888 1080 830 546
174 874 698 -535 -257 797 203 329 893 1070 815 526
213 918 703 -523 -259 787 193 324 888 1070 815 531
209 918 708 -564 -242 812 192 319 879 1065 810 526
199 899 698 -562 -247 814 202 334 888 1055 805 521
213 918 703 -547 -247 800 201 329 888 1060 815 536
179 884 703 -564 -242 812 201 329 882 1055 810 531
150 855 703 -530 -259 795 206 334 886 1055 810 532
160 879 718 -501 -274 780 196 324 867 1060 815 542
155 869 713 -518 -277 800 200 314 857 1045 796 522
189 894 703 -510 -277 792 199 313 857 1031 786 513
218 918 698 -540 -255 800 194 313 847 1031 786 513
199 899 698 -566 -238 809 199 318 851 1021 776 503
209 899 688 -547 -247 800 203 323 856 1020 786 513
194 889 693 -552 -238 795 203 318 851 1025 791 517
156 850 693 -540 -247 792 207 318 856 1020 781 513
156 851 692 -502 -267 773 202 313 846 1020 786 522
127 816 687 -502 -266 774 197 304 831 1010 776 513
122 816 692 -471 -278 755 196 303 831 1000 761 499
132 826 692 -469 -283 757 201 308 825 999 761 499
132 826 692 -478 -278 762 205 308 825 994 750 485
157 860 702 -478 -278 762 196 303 820 989 755 485
152 855 702 -508 -271 784 204 308 825 985 745 480
147 841 692 -503 -273 782 208 318 830 985 745 480
152 855 702 -493 -271 769 208 313 824 989 755 490
137 816 678 -503 -273 782 213 318 829 985 750 485
118 811 692 -476 -268 750 207 318 824 985 750 485
122 831 707 -464 -286 755 202 308 814 985 745 485
118 821 702 -476 -290 772 212 313 814 965 731 471
166 860 692 -469 -290 764 207 308 809 965 731 466
166 865 697 -513 -261 779 201 308 802 955 726 461
142 846 702 -515 -264 784 210 318 812 955 721 462
157 855 697 -493 -278 777 210 318 807 965 736 477
132 831 697 -505 -268 779 214 318 812 960 731 472
122 816 692 -481 -281 767 214 328 822 960 731 472
161 841 678 -469 -283 757 209 328 812 969 745 481
137 841 702 -500 -256 762 209 328 816 959 731 467
171 890 717 -488 -281 774 208 337 821 954 731 462
186 924 736 -530 -271 806 207 342 821 964 736 467
166 919 751 -554 -273 833 232 357 840 959 731 462
166 938 770 -542 -290 838 236 367 850 978 750 481
152 938 785 -552 -300 857 250 375 855 987 760 491
118 914 795 -544 -315 864 275 400 877 987 760 496
108 919 809 -515 -337 857 275 400 873 1007 779 508
132 933 800 -513 -349 867 274 395 868 997 765 503
132 929 795 -532 -332 869 274 400 873 992 760 488
166 963 795 -530 -329 864 273 400 868 997 765 498
162 974 809 -564 -312 882 273 395 862 987 755 488
133 969 834 -566 -321 894 262 380 852 983 750 483
138 988 848 -549 -348 904 242 345 832 978 750 493
123 954 829 -561 -353 921 237 316 818 963 744 493
128 939 809 -537 -350 894 228 306 818 957 749 498
138 939 800 -532 -338 877 212 296 808 967 754 503
138 920 780 -537 -328 872 201 277 791 957 744 493
162 949 785 -527 -319 852 177 257 772 947 739 494
167 954 785 -555 -309 869 172 243 757 933 735 489
153 934 780 -560 -307 872 176 233 748 918 720 480
172 949 775 -543 -311 860 171 228 748 908 720 484
148 915 765 -560 -299 864 166 213 733 908 720 489
138 891 751 -531 -307 843 170 223 742 903 715 489
158 895 736 -514 -304 823 174 233 747 908 725 499
153 876 722 -526 -287 818 188 252 756 913 720 489
197 901 702 -514 -282 801 198 267 776 913 720 484
241 926 682 -548 -249 803 192 272 776 928 725 489
211 906 692 -582 -218 806 202 286 795 928 725 484
201 906 702 -557 -237 801 202 286 793 952 749 504
182 901 717 -553 -247 806 202 276 784 951 754 511
172 862 687 -540 -264 811 221 290 798 941 744 506
172 848 673 -516 -254 777 229 300 803 951 754 511
162 857 692 -509 -247 762 220 290 793 961 759 511
158 853 692 -509 -262 777 223 290 788 946 744 496
167 872 702 -504 -264 774 219 286 783 940 739 491
167 872 702 -518 -264 789 228 281 773 931 725 477
148 843 692 -518 -264 789 233 266 758 916 710 462
153 848 692 -494 -269 769 227 261 753 897 695 462
104 794 687 -499 -266 772 231 256 748 897 695 462
109 789 678 -448 -288 742 221 251 742 887 691 452
150 813 663 -448 -281 735 212 232 717 882 681 448
135 799 663 -479 -254 740 216 232 717 858 656 424
164 833 668 -465 -262 733 211 227 717 858 656 424
169 843 673 -496 -249 752 211 227 717 853 654 424
150 823 673 -504 -249 760 219 242 732 853 654 424
155 838 682 -484 -259 750 224 242 731 866 669 439
130 809 678 -494 -262 762 223 247 736 871 674 439
121 789 668 -467 -271 745 233 256 750 871 674 439
140 809 668 -453 -271 730 222 247 736 881 684 448
121 799 678 -472 -262 740 227 246 736 871 669 434
135 818 682 -457 -276 740 227 250 741 876 669 429
155 838 682 -475 -271 752 222 241 729 876 674 429
150 828 678 -494 -262 762 231 250 739 866 664 426
140 828 687 -487 -262 755 235 255 743 876 669 431
106 823 717 -482 -271 760 240 255 743 876 674 431
57 794 736 -462 -303 772 259 270 753 876 669 426
77 818 741 -425 -337 767 268 270 743 871 659 421
106 833 726 -447 -330 782 273 259 728 842 625 397
116 833 717 -469 -308 782 268 274 772 827 606 377
223 867 643 -474 -298 777 243 288 840 891 659 406
296 838 541 -545 -208 757 227 303 938 1007 742 445
374 794 419 -567 -120 691 169 298 1035 1178 879 509
501 809 308 -584 -20 608 90 293 1143 1412 1108 641
550 779 230 -655 97 559 41 332 1302 1685 1372 782
579 853 274 -664 161 506 -32 332 1468 2032 1694 954
579 1028 449 -716 153 564 -80 337 1619 2388 2016 1130
526 1160 634 -803 66 740 -119 230 1692 2709 2299 1271
623 1067 445 -843 -52 899 -130 98 1731 2992 2553 1408
677 1038 362 -845 90 757 -131 -18 1784 3168 2694 1501
545 1067 523 -857 158 701 -73 1 1945 3363 2850 1593
458 941 481 -806 12 796 -127 -189 1852 3592 2963 1593
390 668 278 -699 -9 713 -166 -584 1408 3568 2943 1598
253 468 214 -528 57 474 -93 -780 1027 3143 2675 1496
161 375 213 -359 20 342 -35 -883 695 2650 2215 1218
29 370 340 -267 -24 296 125 -790 357 2006 1542 812
0 346 345 -198 -153 357 231 -800 -96 918 483 248
14 351 335 -172 -170 347 304 -780 -384 43 -195 -112
4 341 335 -181 -158 345 260 -917 -779 -248 -336 -224
9 312 301 -172 -163 340 196 -941 -838 -561 -473 -322
0 278 276 -159 -143 308 162 -844 -726 -546 -429 -302
-19 200 219 -137 -136 279 176 -678 -595 -429 -361 -268
-9 195 204 -89 -118 211 195 -541 -483 -336 -287 -229
9 185 174 -91 -106 201 214 -439 -400 -258 -224 -185
53 195 140 -96 -80 181 243 -336 -278 -209 -195 -175
151 239 87 -123 -41 169 252 -244 -170 -117 -126 -131
141 278 136 -193 32 164 242 -136 -48 -29 -68 -107
146 346 198 -208 3 208 276 0 90 82 14 -58
161 424 262 -245 -24 274 344 141 232 200 102 5
136 473 335 -291 -48 345 359 200 334 307 180 54
136 536 398 -303 -97 406 338 214 407 409 263 118
146 590 442 -335 -129 469 332 263 495 483 326 171
117 610 491 -367 -146 518 332 317 582 569 390 210
151 683 530 -362 -185 552 313 292 616 652 453 264
170 707 535 -417 -187 608 287 253 626 691 492 288
146 707 559 -438 -180 623 278 243 655 716 517 308
161 751 589 -426 -204 635 258 218 660 755 556 342
131 741 608 -456 -212 672 252 218 675 774 570 357
122 746 623 -436 -236 677 251 233 712 798 595 371
136 771 633 -434 -248 686 237 233 722 832 619 398
122 756 633 -453 -246 703 241 243 736 847 634 408
158 786 627 -438 -253 696 240 252 751 866 649 417
187 820 632 -470 -233 708 226 238 746 881 663 422
158 806 646 -502 -221 728 236 246 761 876 658 417
158 811 651 -480 -243 728 236 256 774 895 676 432
158 806 646 -482 -245 733 235 251 774 905 686 451
128 767 637 -480 -243 728 234 251 784 910 690 451
133 781 646 -446 -252 703 224 246 779 920 695 456
138 796 656 -456 -255 716 223 242 774 914 695 456
143 801 656 -465 -257 728 228 246 784 914 690 447
187 840 651 -470 -255 730 218 242 782 919 700 456
177 835 656 -512 -230 747 223 246 787 919 695 457
163 820 656 -504 -238 747 227 261 802 929 705 462
167 825 656 -490 -245 740 226 256 802 943 725 477
128 791 661 -495 -243 742 226 261 806 943 725 477
143 801 656 -458 -264 728 226 261 811 948 725 482
158 821 661 -470 -255 730 220 251 805 953 730 482
138 812 671 -487 -249 742 220 256 815 948 720 472
182 856 671 -473 -263 742 215 255 815 958 730 477
197 860 661 -517 -242 764 219 255 820 958 725 477
177 836 656 -526 -229 762 224 270 835 963 730 477
192 860 666 -504 -237 747 223 270 838 977 744 492
158 831 671 -524 -234 764 218 265 838 977 749 494
148 816 666 -492 -254 752 222 275 847 982 749 494
182 836 651 -480 -256 742 217 265 843 991 754 503
167 826 656 -507 -232 745 217 270 843 981 749 494
182 856 671 -495 -242 742 217 270 852 986 754 489
206 880 671 -517 -242 764 216 270 846 996 754 494
192 865 671 -541 -229 777 220 280 861 991 754 489
192 870 676 -526 -237 769 220 284 871 1005 769 498
197 865 666 -529 -239 774 220 289 871 1019 778 513
159 836 676 -529 -232 767 224 294 881 1019 778 513
159 846 685 -497 -256 757 214 294 881 1034 788 518
168 860 690 -501 -261 767 214 289 879 1034 783 513
188 860 671 -514 -259 777 218 289 883 1034 782 504
222 899 676 -523 -239 767 207 289 883 1039 787 509
203 895 690 -560 -224 789 212 294 893 1039 787 504
193 885 690 -548 -242 794 217 309 913 1053 797 509
207 895 685 -538 -246 789 211 309 913 1073 821 529
168 856 685 -550 -237 791 211 314 921 1072 821 529
168 860 690 -511 -256 772 216 319 926 1087 831 538
178 885 705 -514 -259 777 211 308 921 1092 836 543
173 880 705 -531 -261 796 210 313 931 1092 831 529
222 914 690 -526 -263 794 209 318 941 1101 841 538
222 924 700 -567 -232 803 204 318 941 1106 846 543
193 904 710 -572 -237 813 208 332 959 1111 851 543
207 924 715 -548 -256 808 203 332 963 1135 870 565
173 890 715 -565 -251 821 208 342 973 1140 875 575
164 875 710 -531 -268 803 208 351 988 1150 890 579
188 899 710 -519 -271 794 197 341 983 1165 899 589
173 895 720 -543 -259 806 196 346 987 1165 894 579
198 924 724 -533 -271 808 196 351 997 1170 899 584
212 948 734 -560 -261 825 196 351 1001 1179 914 594
207 934 724 -580 -259 843 195 365 1021 1184 914 594
222 948 724 -570 -256 830 195 375 1031 1209 938 609
212 943 729 -584 -249 838 200 380 1036 1217 948 619
178 914 734 -577 -256 838 199 390 1058 1227 958 623
198 924 724 -545 -276 825 184 395 1063 1247 977 639
203 938 734 -560 -261 825 188 395 1063 1252 977 639
198 938 739 -570 -263 838 188 404 1073 1256 982 634
237 987 749 -567 -268 840 182 409 1078 1265 992 644
229 983 753 -611 -254 869 187 419 1092 1275 997 644
229 969 738 -604 -260 869 192 439 1116 1285 1012 654
239 988 748 -597 -253 855 192 447 1120 1314 1036 678
205 949 743 -611 -253 869 191 457 1140 1319 1044 678
209 959 748 -575 -267 847 190 467 1150 1334 1053 688
219 979 758 -582 -267 855 180 467 1155 1348 1068 702
209 974 762 -597 -267 869 190 482 1169 1348 1068 693
263 1018 753 -589 -275 869 184 496 1177 1363 1078 702
263 1027 762 -638 -243 886 184 506 1187 1373 1093 709
249 1013 762 -644 -248 896 194 525 1206 1381 1097 709
253 1032 777 -629 -255 889 193 540 1221 1401 1122 734
209 998 787 -642 -260 906 197 550 1226 1411 1132 744
209 988 777 -603 -287 894 202 569 1245 1420 1141 748
234 1013 777 -598 -282 884 197 574 1239 1435 1156 758
224 1008 782 -622 -270 896 201 584 1244 1430 1151 753
253 1037 782 -615 -277 896 201 599 1259 1435 1156 753
268 1052 782 -644 -262 911 201 608 1259 1445 1166 758
253 1037 782 -659 -255 918 210 628 1274 1440 1161 758
253 1042 787 -644 -262 911 219 647 1281 1455 1175 768
249 1037 787 -646 -265 916 218 657 1281 1459 1185 779
214 1008 792 -642 -267 913 233 672 1296 1455 1180 779
219 1018 797 -610 -287 901 232 682 1291 1459 1190 788
244 1022 777 -617 -287 908 232 682 1281 1455 1185 784
244 1027 782 -632 -265 901 242 696 1291 1445 1175 774
263 1057 792 -634 -267 906 237 701 1280 1445 1180 774
249 1052 801 -659 -262 925 250 715 1285 1434 1171 769
234 1037 801 -649 -275 928 259 729 1290 1429 1171 769
253 1052 797 -634 -282 921 259 729 1280 1434 1175 779
219 1008 787 -651 -270 925 269 739 1280 1419 1166 774
214 1003 787 -612 -282 899 273 744 1280 1419 1166 779
235 1028 792 -607 -284 896 273 739 1259 1409 1161 779
210 1009 797 -629 -276 911 278 744 1254 1384 1141 761
245 1043 797 -607 -291 904 277 743 1244 1379 1141 756
250 1053 801 -642 -274 921 281 743 1234 1370 1131 751
225 1023 797 -649 -274 928 290 753 1239 1355 1116 742
250 1038 787 -622 -283 911 290 748 1230 1355 1121 756
201 1004 801 -642 -266 913 294 748 1219 1340 1111 751
171 980 806 -600 -298 904 299 748 1214 1326 1101 742
201 994 792 -573 -315 894 294 733 1190 1321 1092 742
201 980 777 -595 -293 894 299 728 1175 1291 1067 722
206 999 792 -588 -286 879 298 719 1165 1276 1048 707
230 1019 787 -600 -291 896 297 709 1148 1261 1038 698
215 989 772 -622 -276 904 307 709 1144 1237 1013 684
206 984 777 -600 -276 882 307 704 1139 1232 1009 684
215 975 758 -593 -283 882 316 694 1124 1217 1004 679
171 927 753 -593 -269 867 320 689 1114 1203 979 665
162 927 762 -548 -287 841 316 670 1095 1193 970 660
171 932 758 -544 -297 846 315 654 1069 1168 945 640
191 932 738 -551 -290 846 318 644 1060 1149 921 621
201 956 753 -561 -270 836 309 630 1045 1134 911 611
181 937 753 -578 -273 856 314 620 1035 1115 891 596
191 917 723 -558 -282 846 317 610 1035 1110 882 591
196 932 733 -553 -263 822 313 591 1016 1105 882 596
157 883 723 -563 -265 834 313 581 1009 1090 862 582
152 873 719 -519 -280 804 303 566 1004 1081 857 579
157 883 723 -512 -280 797 302 547 980 1076 848 574
147 868 719 -519 -280 804 306 537 975 1055 828 554
196 902 704 -507 -282 795 296 522 965 1055 818 545
196 907 709 -548 -251 804 290 508 950 1041 808 540
176 883 704 -551 -253 809 295 503 954 1036 799 525
188 893 704 -529 -260 795 290 498 949 1041 804 535
159 859 699 -539 -256 800 290 488 940 1035 799 535
134 844 709 -507 -268 780 294 479 940 1030 794 525
159 863 704 -487 -285 778 278 459 920 1035 792 530
164 849 684 -509 -270 785 278 449 915 1015 777 510
173 873 699 -504 -258 768 278 444 913 1015 767 506
188 893 704 -522 -260 787 267 430 903 1015 772 507
183 878 694 -539 -256 800 272 430 908 1010 763 497
183 888 704 -529 -253 787 272 425 913 1020 772 507
169 873 704 -534 -258 797 271 420 908 1025 772 511
154 839 684 -519 -265 790 271 419 917 1025 772 507
154 844 689 -495 -263 763 261 404 907 1035 782 516
159 854 694 -497 -265 768 256 390 893 1029 772 507
169 863 694 -504 -265 775 255 390 897 1019 767 497
208 898 689 -514 -260 780 250 380 893 1029 772 502
198 893 694 -551 -239 795 250 375 897 1024 772 497
183 873 689 -544 -246 795 250 380 905 1029 772 502
178 888 709 -526 -251 783 244 374 905 1048 792 518
144 849 704 -531 -263 800 243 374 905 1048 792 513
159 849 689 -495 -278 778 243 369 910 1058 797 523
169 873 704 -502 -263 770 233 359 895 1058 802 523
154 863 709 -519 -265 790 232 355 900 1053 787 509
203 902 699 -507 -275 787 222 350 899 1058 792 509
203 907 704 -551 -246 802 222 350 899 1058 797 513
173 888 714 -554 -248 807 231 359 914 1063 797 513
203 907 704 -530 -268 802 225 359 914 1078 811 528
178 873 694 -554 -248 807 225 355 914 1078 816 533
164 859 694 -525 -256 785 225 355 924 1082 821 533
183 883 699 -510 -263 778 210 345 907 1086 826 538
173 873 699 -532 -256 792 210 345 907 1077 816 529
184 899 713 -523 -260 787 210 340 912 1082 816 524
213 923 708 -540 -262 807 205 335 907 1082 821 529
209 903 693 -566 -245 817 214 344 917 1081 816 524
199 908 708 -554 -240 800 213 349 922 1090 830 534
189 903 713 -552 -252 809 208 344 911 1095 835 544
174 869 693 -545 -259 809 216 349 921 1095 835 539
179 884 703 -520 -257 783 207 339 916 1100 840 549
184 884 698 -530 -259 795 202 334 906 1095 835 544
174 884 708 -532 -255 792 207 334 906 1085 825 529
204 923 718 -527 -264 797 196 329 899 1090 830 534
194 913 718 -562 -255 822 200 329 899 1081 825 531
194 899 703 -552 -259 817 210 344 909 1085 825 536
209 913 703 -545 -252 802 205 339 904 1095 835 551
170 869 698 -559 -245 809 204 339 904 1084 830 546
170 874 703 -518 -262 785 204 334 904 1089 830 546
184 889 703 -520 -264 790 199 324 888 1080 830 546
174 874 698 -535 -257 797 203 329 893 1070 815 526
213 918 703 -523 -259 787 193 324 888 1070 815 531
209 918 708 -564 -242 812 192 319 879 1065 810 526
199 899 698 -562 -247 814 202 334 888 1055 805 521
213 918 703 -547 -247 800 201 329 888 1060 815 536
179 884 703 -564 -242 812 201 329 882 1055 810 531
150 855 703 -530 -259 795 206 334 886 1055 810 532
160 879 718 -501 -274 780 196 324 867 1060 815 542
155 869 713 -518 -277 800 200 314 857 1045 796 522
189 894 703 -510 -277 792 199 313 857 1031 786 513
218 918 698 -540 -255 800 194 313 847 1031 786 513
199 899 698 -566 -238 809 199 318 851 1021 776 503
209 899 688 -547 -247 800 203 323 856 1020 786 513
194 889 693 -552 -238 795 203 318 851 1025 791 517
156 850 693 -540 -247 792 207 318 856 1020 781 513
156 851 692 -502 -267 773 202 313 846 1020 786 522
127 816 687 -502 -266 774 197 304 831 1010 776 513
122 816 692 -471 -278 755 196 303 831 1000 761 499
132 826 692 -469 -283 757 201 308 825 999 761 499
132 826 692 -478 -278 762 205 308 825 994 750 485
157 860 702 -478 -278 762 196 303 820 989 755 485
152 855 702 -508 -271 784 204 308 825 985 745 480
147 841 692 -503 -273 782 208 318 830 985 745 480
152 855 702 -493 -271 769 208 313 824 989 755 490
137 816 678 -503 -273 782 213 318 829 985 750 485
118 811 692 -476 -268 750 207 318 824 985 750 485
122 831 707 -464 -286 755 202 308 814 985 745 485
118 821 702 -476 -290 772 212 313 814 965 731 471
166 860 692 -469 -290 764 207 308 809 965 731 466
166 865 697 -513 -261 779 201 308 802 955 726 461
142 846 702 -515 -264 784 210 318 812 955 721 462
157 855 697 -493 -278 777 210 318 807 965 736 477
132 831 697 -505 -268 779 214 318 812 960 731 472
122 816 692 -481 -281 767 214 328 822 960 731 472
161 841 678 -469 -283 757 209 328 812 969 745 481
137 841 702 -500 -256 762 209 328 816 959 731 467
171 890 717 -488 -281 774 208 337 821 954 731 462
186 924 736 -530 -271 806 207 342 821 964 736 467
166 919 751 -554 -273 833 232 357 840 959 731 462
166 938 770 -542 -290 838 236 367 850 978 750 481
152 938 785 -552 -300 857 250 375 855 987 760 491
118 914 795 -544 -315 864 275 400 877 987 760 496
108 919 809 -515 -337 857 275 400 873 1007 779 508
132 933 800 -513 -349 867 274 395 868 997 765 503
132 929 795 -532 -332 869 274 400 873 992 760 488
166 963 795 -530 -329 864 273 400 868 997 765 498
162 974 809 -564 -312 882 273 395 862 987 755 488
133 969 834 -566 -321 894 262 380 852 983 750 483
138 988 848 -549 -348 904 242 345 832 978 750 493
123 954 829 -561 -353 921 237 316 818 963 744 493
128 939 809 -537 -350 894 228 306 818 957 749 498
138 939 800 -532 -338 877 212 296 808 967 754 503
138 920 780 -537 -328 872 201 277 791 957 744 493
162 949 785 -527 -319 852 177 257 772 947 739 494
167 954 785 -555 -309 869 172 243 757 933 735 489
153 934 780 -560 -307 872 176 233 748 918 720 480
172 949 775 -543 -311 860 171 228 748 908 720 484
148 915 765 -560 -299 864 166 213 733 908 720 489
138 891 751 -531 -307 843 170 223 742 903 715 489
158 895 736 -514 -304 823 174 233 747 908 725 499
153 876 722 -526 -287 818 188 252 756 913 720 489
197 901 702 -514 -282 801 198 267 776 913 720 484
241 926 682 -548 -249 803 192 272 776 928 725 489
211 906 692 -582 -218 806 202 286 795 928 725 484
201 906 702 -557 -237 801 202 286 793 952 749 504
182 901 717 -553 -247 806 202 276 784 951 754 511
172 862 687 -540 -264 811 221 290 798 941 744 506
172 848 673 -516 -254 777 229 300 803 951 754 511
162 857 692 -509 -247 762 220 290 793 961 759 511
158 853 692 -509 -262 777 223 290 788 946 744 496
167 872 702 -504 -264 774 219 286 783 940 739 491
167 872 702 -518 -264 789 228 281 773 931 725 477
148 843 692 -518 -264 789 233 266 758 916 710 462
153 848 692 -494 -269 769 227 261 753 897 695 462
104 794 687 -499 -266 772 231 256 748 897 695 462
109 789 678 -448 -288 742 221 251 742 887 691 452
150 813 663 -448 -281 735 212 232 717 882 681 448
135 799 663 -479 -254 740 216 232 717 858 656 424
164 833 668 -465 -262 733 211 227 717 858 656 424
169 843 673 -496 -249 752 211 227 717 853 654 424
150 823 673 -504 -249 760 219 242 732 853 654 424
155 838 682 -484 -259 750 224 242 731 866 669 439
130 809 678 -494 -262 762 223 247 736 871 674 439
121 789 668 -467 -271 745 233 256 750 871 674 439
140 809 668 -453 -271 730 222 247 736 881 684 448
121 799 678 -472 -262 740 227 246 736 871 669 434
135 818 682 -457 -276 740 227 250 741 876 669 429
155 838 682 -475 -271 752 222 241 729 876 674 429
150 828 678 -494 -262 762 231 250 739 866 664 426
140 828 687 -487 -262 755 235 255 743 876 669 431
106 823 717 -482 -271 760 240 255 743 876 674 431
57 794 736 -462 -303 772 259 270 753 876 669 426
77 818 741 -425 -337 767 268 270 743 871 659 421
106 833 726 -447 -330 782 273 259 728 842 625 397
116 833 717 -469 -308 782 268 274 772 827 606 377
223 867 643 -474 -298 777 243 288 840 891 659 406
296 838 541 -545 -208 757 227 303 938 1007 742 445
374 794 419 -567 -120 691 169 298 1035 1178 879 509
501 809 308 -584 -20 608 90 293 1143 1412 1108 641
550 779 230 -655 97 559 41 332 1302 1685 1372 782
579 853 274 -664 161 506 -32 332 1468 2032 1694 954
579 1028 449 -716 153 564 -80 337 1619 2388 2016 1130
526 1160 634 -803 66 740 -119 230 1692 2709 2299 1271
623 1067 445 -843 -52 899 -130 98 1731 2992 2553 1408
677 1038 362 -845 90 757 -131 -18 1784 3168 2694 1501
545 1067 523 -857 158 701 -73 1 1945 3363 2850 1593
458 941 481 -806 12 796 -127 -189 1852 3592 2963 1593
390 668 278 -699 -9 713 -166 -584 1408 3568 2943 1598
253 468 214 -528 57 474 -93 -780 1027 3143 2675 1496
161 375 213 -359 20 342 -35 -883 695 2650 2215 1218
29 370 340 -267 -24 296 125 -790 357 2006 1542 812
0 346 345 -198 -153 357 231 -800 -96 918 483 248
14 351 335 -172 -170 347 304 -780 -384 43 -195 -112
4 341 335 -181 -158 345 260 -917 -779 -248 -336 -224
9 312 301 -172 -163 340 196 -941 -838 -561 -473 -322
0 278 276 -159 -143 308 162 -844 -726 -546 -429 -302
-19 200 219 -137 -136 279 176 -678 -595 -429 -361 -268
-9 195 204 -89 -118 211 195 -541 -483 -336 -287 -229
9 185 174 -91 -106 201 214 -439 -400 -258 -224 -185
53 195 140 -96 -80 181 243 -336 -278 -209 -195 -175
151 239 87 -123 -41 169 252 -244 -170 -117 -126 -131
141 278 136 -193 32 164 242 -136 -48 -29 -68 -107
146 346 198 -208 3 208 276 0 90 82 14 -58
161 424 262 -245 -24 274 344 141 232 200 102 5
136 473 335 -291 -48 345 359 200 334 307 180 54
136 536 398 -303 -97 406 338 214 407 409 263 118
146 590 442 -335 -129 469 332 263 495 483 326 171
117 610 491 -367 -146 518 332 317 582 569 390 210
151 683 530 -362 -185 552 313 292 616 652 453 264
170 707 535 -417 -187 608 287 253 626 691 492 288
146 707 559 -438 -180 623 278 243 655 716 517 308
161 751 589 -426 -204 635 258 218 660 755 556 342
131 741 608 -456 -212 672 252 218 675 774 570 357
122 746 623 -436 -236 677 251 233 712 798 595 371
136 771 633 -434 -248 686 237 233 722 832 619 398
122 756 633 -453 -246 703 241 243 736 847 634 408
158 786 627 -438 -253 696 240 252 751 866 649 417
187 820 632 -470 -233 708 226 238 746 881 663 422
158 806 646 -502 -221 728 236 246 761 876 658 417
158 811 651 -480 -243 728 236 256 774 895 676 432
158 806 646 -482 -245 733 235 251 774 905 686 451
128 767 637 -480 -243 728 234 251 784 910 690 451
133 781 646 -446 -252 703 224 246 779 920 695 456
138 796 656 -456 -255 716 223 242 774 914 695 456
143 801 656 -465 -257 728 228 246 784 914 690 447
187 840 651 -470 -255 730 218 242 782 919 700 456
177 835 656 -512 -230 747 223 246 787 919 695 457
163 820 656 -504 -238 747 227 261 802 929 705 462
167 825 656 -490 -245 740 226 256 802 943 725 477
128 791 661 -495 -243 742 226 261 806 943 725 477
143 801 656 -458 -264 728 226 261 811 948 725 482
158 821 661 -470 -255 730 220 251 805 953 730 482
138 812 671 -487 -249 742 220 256 815 948 720 472
182 856 671 -473 -263 742 215 255 815 958 730 477
197 860 661 -517 -242 764 219 255 820 958 725 477
177 836 656 -526 -229 762 224 270 835 963 730 477
192 860 666 -504 -237 747 223 270 838 977 744 492
158 831 671 -524 -234 764 218 265 838 977 749 494
148 816 666 -492 -254 752 222 275 847 982 749 494
182 836 651 -480 -256 742 217 265 843 991 754 503
167 826 656 -507 -232 745 217 270 843 981 749 494
182 856 671 -495 -242 742 217 270 852 986 754 489
206 880 671 -517 -242 764 216 270 846 996 754 494
192 865 671 -541 -229 777 220 280 861 991 754 489
192 870 676 -526 -237 769 220 284 871 1005 769 498
197 865 666 -529 -239 774 220 289 871 1019 778 513
159 836 676 -529 -232 767 224 294 881 1019 778 513
159 846 685 -497 -256 757 214 294 881 1034 788 518
168 860 690 -501 -261 767 214 289 879 1034 783 513
188 860 671 -514 -259 777 218 289 883 1034 782 504
222 899 676 -523 -239 767 207 289 883 1039 787 509
203 895 690 -560 -224 789 212 294 893 1039 787 504
193 885 690 -548 -242 794 217 309 913 1053 797 509
207 895 685 -538 -246 789 211 309 913 1073 821 529
168 856 685 -550 -237 791 211 314 921 1072 821 529
168 860 690 -511 -256 772 216 319 926 1087 831 538
178 885 705 -514 -259 777 211 308 921 1092 836 543
173 880 705 -531 -261 796 210 313 931 1092 831 529
222 914 690 -526 -263 794 209 318 941 1101 841 538
222 924 700 -567 -232 803 204 318 941 1106 846 543
193 904 710 -572 -237 813 208 332 959 1111 851 543
207 924 715 -548 -256 808 203 332 963 1135 870 565
173 890 715 -565 -251 821 208 342 973 1140 875 575
164 875 710 -531 -268 803 208 351 988 1150 890 579
188 899 710 -519 -271 794 197 341 983 1165 899 589
173 895 720 -543 -259 806 196 346 987 1165 894 579
198 924 724 -533 -271 808 196 351 997 1170 899 584
212 948 734 -560 -261 825 196 351 1001 1179 914 594
207 934 724 -580 -259 843 195 365 1021 1184 914 594
222 948 724 -570 -256 830 195 375 1031 1209 938 609
212 943 729 -584 -249 838 200 380 1036 1217 948 619
178 914 734 -577 -256 838 199 390 1058 1227 958 623
198 924 724 -545 -276 825 184 395 1063 1247 977 639
203 938 734 -560 -261 825 188 395 1063 1252 977 639
198 938 739 -570 -263 838 188 404 1073 1256 982 634
237 987 749 -567 -268 840 182 409 1078 1265 992 644
229 983 753 -611 -254 869 187 419 1092 1275 997 644
229 969 738 -604 -260 869 192 439 1116 1285 1012 654
239 988 748 -597 -253 855 192 447 1120 1314 1036 678
205 949 743 -611 -253 869 191 457 1140 1319 1044 678
209 959 748 -575 -267 847 190 467 1150 1334 1053 688
219 979 758 -582 -267 855 180 467 1155 1348 1068 702
209 974 762 -597 -267 869 190 482 1169 1348 1068 693
263 1018 753 -589 -275 869 184 496 1177 1363 1078 702
263 1027 762 -638 -243 886 184 506 1187 1373 1093 709
249 1013 762 -644 -248 896 194 525 1206 1381 1097 709
253 1032 777 -629 -255 889 193 540 1221 1401 1122 734
209 998 787 -642 -260 906 197 550 1226 1411 1132 744
209 988 777 -603 -287 894 202 569 1245 1420 1141 748
234 1013 777 -598 -282 884 197 574 1239 1435 1156 758
224 1008 782 -622 -270 896 201 584 1244 1430 1151 753
253 1037 782 -615 -277 896 201 599 1259 1435 1156 753
268 1052 782 -644 -262 911 201 608 1259 1445 1166 758
253 1037 782 -659 -255 918 210 628 1274 1440 1161 758
253 1042 787 -644 -262 911 219 647 1281 1455 1175 768
249 1037 787 -646 -265 916 218 657 1281 1459 1185 779
214 1008 792 -642 -267 913 233 672 1296 1455 1180 779
219 1018 797 -610 -287 901 232 682 1291 1459 1190 788
244 1022 777 -617 -287 908 232 682 1281 1455 1185 784
244 1027 782 -632 -265 901 242 696 1291 1445 1175 774
263 1057 792 -634 -267 906 237 701 1280 1445 1180 774
249 1052 801 -659 -262 925 250 715 1285 1434 1171 769
234 1037 801 -649 -275 928 259 729 1290 1429 1171 769
253 1052 797 -634 -282 921 259 729 1280 1434 1175 779
219 1008 787 -651 -270 925 269 739 1280 1419 1166 774
214 1003 787 -612 -282 899 273 744 1280 1419 1166 779
235 1028 792 -607 -284 896 273 739 1259 1409 1161 779
210 1009 797 -629 -276 911 278 744 1254 1384 1141 761
245 1043 797 -607 -291 904 277 743 1244 1379 1141 756
250 1053 801 -642 -274 921 281 743 1234 1370 1131 751
225 1023 797 -649 -274 928 290 753 1239 1355 1116 742
250 1038 787 -622 -283 911 290 748 1230 1355 1121 756
201 1004 801 -642 -266 913 294 748 1219 1340 1111 751
171 980 806 -600 -298 904 299 748 1214 1326 1101 742
201 994 792 -573 -315 894 294 733 1190 1321 1092 742
201 980 777 -595 -293 894 299 728 1175 1291 1067 722
206 999 792 -588 -286 879 298 719 1165 1276 1048 707
230 1019 787 -600 -291 896 297 709 1148 1261 1038 698
215 989 772 -622 -276 904 307 709 1144 1237 1013 684
206 984 777 -600 -276 882 307 704 1139 1232 1009 684
215 975 758 -593 -283 882 316 694 1124 1217 1004 679
171 927 753 -593 -269 867 320 689 1114 1203 979 665
162 927 762 -548 -287 841 316 670 1095 1193 970 660
171 932 758 -544 -297 846 315 654 1069 1168 945 640
191 932 738 -551 -290 846 318 644 1060 1149 921 621
201 956 753 -561 -270 836 309 630 1045 1134 911 611
181 937 753 -578 -273 856 314 620 1035 1115 891 596
191 917 723 -558 -282 846 317 610 1035 1110 882 591
196 932 733 -553 -263 822 313 591 1016 1105 882 596
157 883 723 -563 -265 834 313 581 1009 1090 862 582
152 873 719 -519 -280 804 303 566 1004 1081 857 579
157 883 723 -512 -280 797 302 547 980 1076 848 574
147 868 719 -519 -280 804 306 537 975 1055 828 554
196 902 704 -507 -282 795 296 522 965 1055 818 545
196 907 709 -548 -251 804 290 508 950 1041 808 540
176 883 704 -551 -253 809 295 503 954 1036 799 525
188 893 704 -529 -260 795 290 498 949 1041 804 535
159 859 699 -539 -256 800 290 488 940 1035 799 535
134 844 709 -507 -268 780 294 479 940 1030 794 525
159 863 704 -487 -285 778 278 459 920 1035 792 530
164 849 684 -509 -270 785 278 449 915 1015 777 510
173 873 699 -504 -258 768 278 444 913 1015 767 506
188 893 704 -522 -260 787 267 430 903 1015 772 507
183 878 694 -539 -256 800 272 430 908 1010 763 497
183 888 704 -529 -253 787 272 425 913 1020 772 507
169 873 704 -534 -258 797 271 420 908 1025 772 511
154 839 684 -519 -265 790 271 419 917 1025 772 507
154 844 689 -495 -263 763 261 404 907 1035 782 516
159 854 694 -497 -265 768 256 390 893 1029 772 507
169 863 694 -504 -265 775 255 390 897 1019 767 497
208 898 689 -514 -260 780 250 380 893 1029 772 502
198 893 694 -551 -239 795 250 375 897 1024 772 497
183 873 689 -544 -246 795 250 380 905 1029 772 502
178 888 709 -526 -251 783 244 374 905 1048 792 518
144 849 704 -531 -263 800 243 374 905 1048 792 513
159 849 689 -495 -278 778 243 369 910 1058 797 523
169 873 704 -502 -263 770 233 359 895 1058 802 523
154 863 709 -519 -265 790 232 355 900 1053 787 509
203 902 699 -507 -275 787 222 350 899 1058 792 509
203 907 704 -551 -246 802 222 350 899 1058 797 513
173 888 714 -554 -248 807 231 359 914 1063 797 513
203 907 704 -530 -268 802 225 359 914 1078 811 528
178 873 694 -554 -248 807 225 355 914 1078 816 533
164 859 694 -525 -256 785 225 355 924 1082 821 533
183 883 699 -510 -263 778 210 345 907 1086 826 538
173 873 699 -532 -256 792 210 345 907 1077 816 529
184 899 713 -523 -260 787 210 340 912 1082 816 524
213 923 708 -540 -262 807 205 335 907 1082 821 529
209 903 693 -566 -245 817 214 344 917 1081 816 524
199 908 708 -554 -240 800 213 349 922 1090 830 534
189 903 713 -552 -252 809 208 344 911 1095 835 544
174 869 693 -545 -259 809 216 349 921 1095 835 539
179 884 703 -520 -257 783 207 339 916 1100 840 549
184 884 698 -530 -259 795 202 334 906 1095 835 544
174 884 708 -532 -255 792 207 334 906 1085 825 529
204 923 718 -527 -264 797 196 329 899 1090 830 534
194 913 718 -562 -255 822 200 329 899 1081 825 531
194 899 703 -552 -259 817 210 344 909 1085 825 536
209 913 703 -545 -252 802 205 339 904 1095 835 551
170 869 698 -559 -245 809 204 339 904 1084 830 546
170 874 703 -518 -262 785 204 334 904 1089 830 546
184 889 703 -520 -264 790 199 324 888 1080 830 546
174 874 698 -535 -257 797 203 329 893 1070 815 526
213 918 703 -523 -259 787 193 324 888 1070 815 531
209 918 708 -564 -242 812 192 319 879 1065 810 526
199 899 698 -562 -247 814 202 334 888 1055 805 521
213 918 703 -547 -247 800 201 329 888 1060 815 536
179 884 703 -564 -242 812 201 329 882 1055 810 531
150 855 703 -530 -259 795 206 334 886 1055 810 532
160 879 718 -501 -274 780 196 324 867 1060 815 542
155 869 713 -518 -277 800 200 314 857 1045 796 522
189 894 703 -510 -277 792 199 313 857 1031 786 513
218 918 698 -540 -255 800 194 313 847 1031 786 513
199 899 698 -566 -238 809 199 318 851 1021 776 503
209 899 688 -547 -247 800 203 323 856 1020 786 513
194 889 693 -552 -238 795 203 318 851 1025 791 517
156 850 693 -540 -247 792 207 318 856 1020 781 513
156 851 692 -502 -267 773 202 313 846 1020 786 522
127 816 687 -502 -266 774 197 304 831 1010 776 513
122 816 692 -471 -278 755 196 303 831 1000 761 499
132 826 692 -469 -283 757 201 308 825 999 761 499
132 826 692 -478 -278 762 205 308 825 994 750 485
157 860 702 -478 -278 762 196 303 820 989 755 485
152 855 702 -508 -271 784 204 308 825 985 745 480
147 841 692 -503 -273 782 208 318 830 985 745 480
152 855 702 -493 -271 769 208 313 824 989 755 490
137 816 678 -503 -273 782 213 318 829 985 750 485
118 811 692 -476 -268 750 207 318 824 985 750 485
122 831 707 -464 -286 755 202 308 814 985 745 485
118 821 702 -476 -290 772 212 313 814 965 731 471
166 860 692 -469 -290 764 207 308 809 965 731 466
166 865 697 -513 -261 779 201 308 802 955 726 461
142 846 702 -515 -264 784 210 318 812 955 721 462
157 855 697 -493 -278 777 210 318 807 965 736 477
132 831 697 -505 -268 779 214 318 812 960 731 472
122 816 692 -481 -281 767 214 328 822 960 731 472
161 841 678 -469 -283 757 209 328 812 969 745 481
137 841 702 -500 -256 762 209 328 816 959 731 467
171 890 717 -488 -281 774 208 337 821 954 731 462
186 924 736 -530 -271 806 207 342 821 964 736 467
166 919 751 -554 -273 833 232 357 840 959 731 462
166 938 770 -542 -290 838 236 367 850 978 750 481
152 938 785 -552 -300 857 250 375 855 987 760 491
118 914 795 -544 -315 864 275 400 877 987 760 496
108 919 809 -515 -337 857 275 400 873 1007 779 508
132 933 800 -513 -349 867 274 395 868 997 765 503
132 929 795 -532 -332 869 274 400 873 992 760 488
166 963 795 -530 -329 864 273 400 868 997 765 498
162 974 809 -564 -312 882 273 395 862 987 755 488
133 969 834 -566 -321 894 262 380 852 983 750 483
138 988 848 -549 -348 904 242 345 832 978 750 493
123 954 829 -561 -353 921 237 316 818 963 744 493
128 939 809 -537 -350 894 228 306 818 957 749 498
138 939 800 -532 -338 877 212 296 808 967 754 503
138 920 780 -537 -328 872 201 277 791 957 744 493
162 949 785 -527 -319 852 177 257 772 947 739 494
167 954 785 -555 -309 869 172 243 757 933 735 489
153 934 780 -560 -307 872 176 233 748 918 720 480
172 949 775 -543 -311 860 171 228 748 908 720 484
148 915 765 -560 -299 864 166 213 733 908 720 489
138 891 751 -531 -307 843 170 223 742 903 715 489
158 895 736 -514 -304 823 174 233 747 908 725 499
153 876 722 -526 -287 818 188 252 756 913 720 489
197 901 702 -514 -282 801 198 267 776 913 720 484
241 926 682 -548 -249 803 192 272 776 928 725 489
211 906 692 -582 -218 806 202 286 795 928 725 484
201 906 702 -557 -237 801 202 286 793 952 749 504
182 901 717 -553 -247 806 202 276 784 951 754 511
172 862 687 -540 -264 811 221 290 798 941 744 506
172 848 673 -516 -254 777 229 300 803 951 754 511
162 857 692 -509 -247 762 220 290 793 961 759 511
158 853 692 -509 -262 777 223 290 788 946 744 496
167 872 702 -504 -264 774 219 286 783 940 739 491
167 872 702 -518 -264 789 228 281 773 931 725 477
148 843 692 -518 -264 789 233 266 758 916 710 462
153 848 692 -494 -269 769 227 261 753 897 695 462
104 794 687 -499 -266 772 231 256 748 897 695 462
109 789 678 -448 -288 742 221 251 742 887 691 452
150 813 663 -448 -281 735 212 232 717 882 681 448
135 799 663 -479 -254 740 216 232 717 858 656 424
164 833 668 -465 -262 733 211 227 717 858 656 424
169 843 673 -496 -249 752 211 227 717 853 654 424
150 823 673 -504 -249 760 219 242 732 853 654 424
155 838 682 -484 -259 750 224 242 731 866 669 439
130 809 678 -494 -262 762 223 247 736 871 674 439
121 789 668 -467 -271 745 233 256 750 871 674 439
140 809 668 -453 -271 730 222 247 736 881 684 448
121 799 678 -472 -262 740 227 246 736 871 669 434
135 818 682 -457 -276 740 227 250 741 876 669 429
155 838 682 -475 -271 752 222 241 729 876 674 429
150 828 678 -494 -262 762 231 250 739 866 664 426
140 828 687 -487 -262 755 235 255 743 876 669 431
106 823 717 -482 -271 760 240 255 743 876 674 431
57 794 736 -462 -303 772 259 270 753 876 669 426
77 818 741 -425 -337 767 268 270 743 871 659 421
106 833 726 -447 -330 782 273 259 728 842 625 397
116 833 717 -469 -308 782 268 274 772 827 606 377
223 867 643 -474 -298 777 243 288 840 891 659 406
296 838 541 -545 -208 757 227 303 938 1007 742 445
374 794 419 -567 -120 691 169 298 1035 1178 879 509
501 809 308 -584 -20 608 90 293 1143 1412 1108 641
550 779 230 -655 97 559 41 332 1302 1685 1372 782
579 853 274 -664 161 506 -32 332 1468 2032 1694 954
579 1028 449 -716 153 564 -80 337 1619 2388 2016 1130
526 1160 634 -803 66 740 -119 230 1692 2709 2299 1271
623 1067 445 -843 -52 899 -130 98 1731 2992 2553 1408
677 1038 362 -845 90 757 -131 -18 1784 3168 2694 1501
545 1067 523 -857 158 701 -73 1 1945 3363 2850 1593
458 941 481 -806 12 796 -127 -189 1852 3592 2963 1593
390 668 278 -699 -9 713 -166 -584 1408 3568 2943 1598
253 468 214 -528 57 474 -93 -780 1027 3143 2675 1496
161 375 213 -359 20 342 -35 -883 695 2650 2215 1218
29 370 340 -267 -24 296 125 -790 357 2006 1542 812
0 346 345 -198 -153 357 231 -800 -96 918 483 248
14 351 335 -172 -170 347 304 -780 -384 43 -195 -112
4 341 335 -181 -158 345 260 -917 -779 -248 -336 -224
9 312 301 -172 -163 340 196 -941 -838 -561 -473 -322
0 278 276 -159 -143 308 162 -844 -726 -546 -429 -302
-19 200 219 -137 -136 279 176 -678 -595 -429 -361 -268
-9 195 204 -89 -118 211 195 -541 -483 -336 -287 -229
9 185 174 -91 -106 201 214 -439 -400 -258 -224 -185
53 195 140 -96 -80 181 243 -336 -278 -209 -195 -175
151 239 87 -123 -41 169 252 -244 -170 -117 -126 -131
141 278 136 -193 32 164 242 -136 -48 -29 -68 -107
146 346 198 -208 3 208 276 0 90 82 14 -58
161 424 262 -245 -24 274 344 141 232 200 102 5
136 473 335 -291 -48 345 359 200 334 307 180 54
136 536 398 -303 -97 406 338 214 407 409 263 118
146 590 442 -335 -129 469 332 263 495 483 326 171
117 610 491 -367 -146 518 332 317 582 569 390 210
151 683 530 -362 -185 552 313 292 616 652 453 264
170 707 535 -417 -187 608 287 253 626 691 492 288
146 707 559 -438 -180 623 278 243 655 716 517 308
161 751 589 -426 -204 635 258 218 660 755 556 342
131 741 608 -456 -212 672 252 218 675 774 570 357
122 746 623 -436 -236 677 251 233 712 798 595 371
136 771 633 -434 -248 686 237 233 722 832 619 398
122 756 633 -453 -246 703 241 243 736 847 634 408
158 786 627 -438 -253 696 240 252 751 866 649 417
187 820 632 -470 -233 708 226 238 746 881 663 422
158 806 646 -502 -221 728 236 246 761 876 658 417
158 811 651 -480 -243 728 236 256 774 895 676 432
158 806 646 -482 -245 733 235 251 774 905 686 451
128 767 637 -480 -243 728 234 251 784 910 690 451
133 781 646 -446 -252 703 224 246 779 920 695 456
138 796 656 -456 -255 716 223 242 774 914 695 456
143 801 656 -465 -257 728 228 246 784 914 690 447
187 840 651 -470 -255 730 218 242 782 919 700 456
177 835 656 -512 -230 747 223 246 787 919 695 457
163 820 656 -504 -238 747 227 261 802 929 705 462
167 825 656 -490 -245 740 226 256 802 943 725 477
128 791 661 -495 -243 742 226 261 806 943 725 477
143 801 656 -458 -264 728 226 261 811 948 725 482
158 821 661 -470 -255 730 220 251 805 953 730 482
138 812 671 -487 -249 742 220 256 815 948 720 472
182 856 671 -473 -263 742 215 255 815 958 730 477
197 860 661 -517 -242 764 219 255 820 958 725 477
177 836 656 -526 -229 762 224 270 835 963 730 477
192 860 666 -504 -237 747 223 270 838 977 744 492
158 831 671 -524 -234 764 218 265 838 977 749 494
148 816 666 -492 -254 752 222 275 847 982 749 494
182 836 651 -480 -256 742 217 265 843 991 754 503
167 826 656 -507 -232 745 217 270 843 981 749 494
182 856 671 -495 -242 742 217 270 852 986 754 489
206 880 671 -517 -242 764 216 270 846 996 754 494
192 865 671 -541 -229 777 220 280 861 991 754 489
192 870 676 -526 -237 769 220 284 871 1005 769 498
197 865 666 -529 -239 774 220 289 871 1019 778 513
159 836 676 -529 -232 767 224 294 881 1019 778 513
159 846 685 -497 -256 757 214 294 881 1034 788 518
168 860 690 -501 -261 767 214 289 879 1034 783 513
188 860 671 -514 -259 777 218 289 883 1034 782 504
222 899 676 -523 -239 767 207 289 883 1039 787 509
203 895 690 -560 -224 789 212 294 893 1039 787 504
193 885 690 -548 -242 794 217 309 913 1053 797 509
207 895 685 -538 -246 789 211 309 913 1073 821 529
168 856 685 -550 -237 791 211 314 921 1072 821 529
168 860 690 -511 -256 772 216 319 926 1087 831 538
178 885 705 -514 -259 777 211 308 921 1092 836 543
173 880 705 -531 -261 796 210 313 931 1092 831 529
222 914 690 -526 -263 794 209 318 941 1101 841 538
222 924 700 -567 -232 803 204 318 941 1106 846 543
193 904 710 -572 -237 813 208 332 959 1111 851 543
207 924 715 -548 -256 808 203 332 963 1135 870 565
173 890 715 -565 -251 821 208 342 973 1140 875 575
164 875 710 -531 -268 803 208 351 988 1150 890 579
188 899 710 -519 -271 794 197 341 983 1165 899 589
173 895 720 -543 -259 806 196 346 987 1165 894 579
198 924 724 -533 -271 808 196 351 997 1170 899 584
212 948 734 -560 -261 825 196 351 1001 1179 914 594
207 934 724 -580 -259 843 195 365 1021 1184 914 594
222 948 724 -570 -256 830 195 375 1031 1209 938 609
212 943 729 -584 -249 838 200 380 1036 1217 948 619
178 914 734 -577 -256 838 199 390 1058 1227 958 623
198 924 724 -545 -276 825 184 395 1063 1247 977 639
203 938 734 -560 -261 825 188 395 1063 1252 977 639
198 938 739 -570 -263 838 188 404 1073 1256 982 634
237 987 749 -567 -268 840 182 409 1078 1265 992 644
229 983 753 -611 -254 869 187 419 1092 1275 997 644
229 969 738 -604 -260 869 192 439 1116 1285 1012 654
239 988 748 -597 -253 855 192 447 1120 1314 1036 678
205 949 743 -611 -253 869 191 457 1140 1319 1044 678
209 959 748 -575 -267 847 190 467 1150 1334 1053 688
219 979 758 -582 -267 855 180 467 1155 1348 1068 702
209 974 762 -597 -267 869 190 482 1169 1348 1068 693
263 1018 753 -589 -275 869 184 496 1177 1363 1078 702
263 1027 762 -638 -243 886 184 506 1187 1373 1093 709
249 1013 762 -644 -248 896 194 525 1206 1381 1097 709
253 1032 777 -629 -255 889 193 540 1221 1401 1122 734
209 998 787 -642 -260 906 197 550 1226 1411 1132 744
209 988 777 -603 -287 894 202 569 1245 1420 1141 748
234 1013 777 -598 -282 884 197 574 1239 1435 1156 758
224 1008 782 -622 -270 896 201 584 1244 1430 1151 753
253 1037 782 -615 -277 896 201 599 1259 1435 1156 753
268 1052 782 -644 -262 911 201 608 1259 1445 1166 758
253 1037 782 -659 -255 918 210 628 1274 1440 1161 758
253 1042 787 -644 -262 911 219 647 1281 1455 1175 768
249 1037 787 -646 -265 916 218 657 1281 1459 1185 779
214 1008 792 -642 -267 913 233 672 1296 1455 1180 779
219 1018 797 -610 -287 901 232 682 1291 1459 1190 788
244 1022 777 -617 -287 908 232 682 1281 1455 1185 784
244 1027 782 -632 -265 901 242 696 1291 1445 1175 774
263 1057 792 -634 -267 906 237 701 1280 1445 1180 774
249 1052 801 -659 -262 925 250 715 1285 1434 1171 769
234 1037 801 -649 -275 928 259 729 1290 1429 1171 769
253 1052 797 -634 -282 921 259 729 1280 1434 1175 779
219 1008 787 -651 -270 925 269 739 1280 1419 1166 774
214 1003 787 -612 -282 899 273 744 1280 1419 1166 779
235 1028 792 -607 -284 896 273 739 1259 1409 1161 779
210 1009 797 -629 -276 911 278 744 1254 1384 1141 761
245 1043 797 -607 -291 904 277 743 1244 1379 1141 756
250 1053 801 -642 -274 921 281 743 1234 1370 1131 751
225 1023 797 -649 -274 928 290 753 1239 1355 1116 742
250 1038 787 -622 -283 911 290 748 1230 1355 1121 756
201 1004 801 -642 -266 913 294 748 1219 1340 1111 751
171 980 806 -600 -298 904 299 748 1214 1326 1101 742
201 994 792 -573 -315 894 294 733 1190 1321 1092 742
201 980 777 -595 -293 894 299 728 1175 1291 1067 722
206 999 792 -588 -286 879 298 719 1165 1276 1048 707
230 1019 787 -600 -291 896 297 709 1148 1261 1038 698
215 989 772 -622 -276 904 307 709 1144 1237 1013 684
206 984 777 -600 -276 882 307 704 1139 1232 1009 684
215 975 758 -593 -283 882 316 694 1124 1217 1004 679
171 927 753 -593 -269 867 320 689 1114 1203 979 665
162 927 762 -548 -287 841 316 670 1095 1193 970 660
171 932 758 -544 -297 846 315 654 1069 1168 945 640
191 932 738 -551 -290 846 318 644 1060 1149 921 621
201 956 753 -561 -270 836 309 630 1045 1134 911 611
181 937 753 -578 -273 856 314 620 1035 1115 891 596
191 917 723 -558 -282 846 317 610 1035 1110 882 591
196 932 733 -553 -263 822 313 591 1016 1105 882 596
157 883 723 -563 -265 834 313 581 1009 1090 862 582
152 873 719 -519 -280 804 303 566 1004 1081 857 579
157 883 723 -512 -280 797 302 547 980 1076 848 574
147 868 719 -519 -280 804 306 537 975 1055 828 554
196 902 704 -507 -282 795 296 522 965 1055 818 545
196 907 709 -548 -251 804 290 508 950 1041 808 540
176 883 704 -551 -253 809 295 503 954 1036 799 525
188 893 704 -529 -260 795 290 498 949 1041 804 535
159 859 699 -539 -256 800 290 488 940 1035 799 535
134 844 709 -507 -268 780 294 479 940 1030 794 525
159 863 704 -487 -285 778 278 459 920 1035 792 530
164 849 684 -509 -270 785 278 449 915 1015 777 510
173 873 699 -504 -258 768 278 444 913 1015 767 506
188 893 704 -522 -260 787 267 430 903 1015 772 507
183 878 694 -539 -256 800 272 430 908 1010 763 497
183 888 704 -529 -253 787 272 425 913 1020 772 507
169 873 704 -534 -258 797 271 420 908 1025 772 511
154 839 684 -519 -265 790 271 419 917 1025 772 507
154 844 689 -495 -263 763 261 404 907 1035 782 516
159 854 694 -497 -265 768 256 390 893 1029 772 507
169 863 694 -504 -265 775 255 390 897 1019 767 497
208 898 689 -514 -260 780 250 380 893 1029 772 502
198 893 694 -551 -239 795 250 375 897 1024 772 497
183 873 689 -544 -246 795 250 380 905 1029 772 502
178 888 709 -526 -251 783 244 374 905 1048 792 518
144 849 704 -531 -263 800 243 374 905 1048 792 513
159 849 689 -495 -278 778 243 369 910 1058 797 523
169 873 704 -502 -263 770 233 359 895 1058 802 523
154 863 709 -519 -265 790 232 355 900 1053 787 509
203 902 699 -507 -275 787 222 350 899 1058 792 509
203 907 704 -551 -246 802 222 350 899 1058 797 513
173 888 714 -554 -248 807 231 359 914 1063 797 513
203 907 704 -530 -268 802 225 359 914 1078 811 528
178 873 694 -554 -248 807 225 355 914 1078 816 533
164 859 694 -525 -256 785 225 355 924 1082 821 533
183 883 699 -510 -263 778 210 345 907 1086 826 538
173 873 699 -532 -256 792 210 345 907 1077 816 529
184 899 713 -523 -260 787 210 340 912 1082 816 524
213 923 708 -540 -262 807 205 335 907 1082 821 529
209 903 693 -566 -245 817 214 344 917 1081 816 524
199 908 708 -554 -240 800 213 349 922 1090 830 534
189 903 713 -552 -252 809 208 344 911 1095 835 544
174 869 693 -545 -259 809 216 349 921 1095 835 539
179 884 703 -520 -257 783 207 339 916 1100 840 549
184 884 698 -530 -259 795 202 334 906 1095 835 544
174 884 708 -532 -255 792 207 334 906 1085 825 529
204 923 718 -527 -264 797 196 329 899 1090 830 534
194 913 718 -562 -255 822 200 329 899 1081 825 531
194 899 703 -552 -259 817 210 344 909 1085 825 536
209 913 703 -545 -252 802 205 339 904 1095 835 551
170 869 698 -559 -245 809 204 339 904 1084 830 546
170 874 703 -518 -262 785 204 334 904 1089 830 546
184 889 703 -520 -264 790 199 324 888 1080 830 546
174 874 698 -535 -257 797 203 329 893 1070 815 526
213 918 703 -523 -259 787 193 324 888 1070 815 531
209 918 708 -564 -242 812 192 319 879 1065 810 526
199 899 698 -562 -247 814 202 334 888 1055 805 521
213 918 703 -547 -247 800 201 329 888 1060 815 536
179 884 703 -564 -242 812 201 329 882 1055 810 531
150 855 703 -530 -259 795 206 334 886 1055 810 532
160 879 718 -501 -274 780 196 324 867 1060 815 542
155 869 713 -518 -277 800 200 314 857 1045 796 522
189 894 703 -510 -277 792 199 313 857 1031 786 513
218 918 698 -540 -255 800 194 313 847 1031 786 513
199 899 698 -566 -238 809 199 318 851 1021 776 503
209 899 688 -547 -247 800 203 323 856 1020 786 513
194 889 693 -552 -238 795 203 318 851 1025 791 517
156 850 693 -540 -247 792 207 318 856 1020 781 513
156 851 692 -502 -267 773 202 313 846 1020 786 522
127 816 687 -502 -266 774 197 304 831 1010 776 513
122 816 692 -471 -278 755 196 303 831 1000 761 499
132 826 692 -469 -283 757 201 308 825 999 761 499
132 826 692 -478 -278 762 205 308 825 994 750 485
157 860 702 -478 -278 762 196 303 820 989 755 485
152 855 702 -508 -271 784 204 308 825 985 745 480
147 841 692 -503 -273 782 208 318 830 985 745 480
152 855 702 -493 -271 769 208 313 824 989 755 490
137 816 678 -503 -273 782 213 318 829 985 750 485
118 811 692 -476 -268 750 207 318 824 985 750 485
122 831 707 -464 -286 755 202 308 814 985 745 485
118 821 702 -476 -290 772 212 313 814 965 731 471
166 860 692 -469 -290 764 207 308 809 965 731 466
166 865 697 -513 -261 779 201 308 802 955 726 461
142 846 702 -515 -264 784 210 318 812 955 721 462
157 855 697 -493 -278 777 210 318 807 965 736 477
132 831 697 -505 -268 779 214 318 812 960 731 472
122 816 692 -481 -281 767 214 328 822 960 731 472
161 841 678 -469 -283 757 209 328 812 969 745 481
137 841 702 -500 -256 762 209 328 816 959 731 467
171 890 717 -488 -281 774 208 337 821 954 731 462
186 924 736 -530 -271 806 207 342 821 964 736 467
166 919 751 -554 -273 833 232 357 840 959 731 462
166 938 770 -542 -290 838 236 367 850 978 750 481
152 938 785 -552 -300 857 250 375 855 987 760 491
118 914 795 -544 -315 864 275 400 877 987 760 496
108 919 809 -515 -337 857 275 400 873 1007 779 508
132 933 800 -513 -349 867 274 395 868 997 765 503
132 929 795 -532 -332 869 274 400 873 992 760 488
166 963 795 -530 -329 864 273 400 868 997 765 498
162 974 809 -564 -312 882 273 395 862 987 755 488
133 969 834 -566 -321 894 262 380 852 983 750 483
138 988 848 -549 -348 904 242 345 832 978 750 493
123 954 829 -561 -353 921 237 316 818 963 744 493
128 939 809 -537 -350 894 228 306 818 957 749 498
138 939 800 -532 -338 877 212 296 808 967 754 503
138 920 780 -537 -328 872 201 277 791 957 744 493
162 949 785 -527 -319 852 177 257 772 947 739 494
167 954 785 -555 -309 869 172 243 757 933 735 489
153 934 780 -560 -307 872 176 233 748 918 720 480
172 949 775 -543 -311 860 171 228 748 908 720 484
148 915 765 -560 -299 864 166 213 733 908 720 489
138 891 751 -531 -307 843 170 223 742 903 715 489
158 895 736 -514 -304 823 174 233 747 908 725 499
153 876 722 -526 -287 818 188 252 756 913 720 489
197 901 702 -514 -282 801 198 267 776 913 720 484
241 926 682 -548 -249 803 192 272 776 928 725 489
211 906 692 -582 -218 806 202 286 795 928 725 484
201 906 702 -557 -237 801 202 286 793 952 749 504
182 901 717 -553 -247 806 202 276 784 951 754 511
172 862 687 -540 -264 811 221 290 798 941 744 506
172 848 673 -516 -254 777 229 300 803 951 754 511
162 857 692 -509 -247 762 220 290 793 961 759 511
158 853 692 -509 -262 777 223 290 788 946 744 496
167 872 702 -504 -264 774 219 286 783 940 739 491
167 872 702 -518 -264 789 228 281 773 931 725 477
148 843 692 -518 -264 789 233 266 758 916 710 462
153 848 692 -494 -269 769 227 261 753 897 695 462
104 794 687 -499 -266 772 231 256 748 897 695 462
109 789 678 -448 -288 742 221 251 742 887 691 452
150 813 663 -448 -281 735 212 232 717 882 681 448
135 799 663 -479 -254 740 216 232 717 858 656 424
164 833 668 -465 -262 733 211 227 717 858 656 424
169 843 673 -496 -249 752 211 227 717 853 654 424
150 823 673 -504 -249 760 219 242 732 853 654 424
155 838 682 -484 -259 750 224 242 731 866 669 439
130 809 678 -494 -262 762 223 247 736 871 674 439
121 789 668 -467 -271 745 233 256 750 871 674 439
140 809 668 -453 -271 730 222 247 736 881 684 448
121 799 678 -472 -262 740 227 246 736 871 669 434
135 818 682 -457 -276 740 227 250 741 876 669 429
155 838 682 -475 -271 752 222 241 729 876 674 429
150 828 678 -494 -262 762 231 250 739 866 664 426
140 828 687 -487 -262 755 235 255 743 876 669 431
106 823 717 -482 -271 760 240 255 743 876 674 431
57 794 736 -462 -303 772 259 270 753 876 669 426
77 818 741 -425 -337 767 268 270 743 871 659 421
106 833 726 -447 -330 782 273 259 728 842 625 397
116 833 717 -469 -308 782 268 274 772 827 606 377
223 867 643 -474 -298 777 243 288 840 891 659 406
296 838 541 -545 -208 757 227 303 938 1007 742 445
374 794 419 -567 -120 691 169 298 1035 1178 879 509
501 809 308 -584 -20 608 90 293 1143 1412 1108 641
550 779 230 -655 97 559 41 332 1302 1685 1372 782
579 853 274 -664 161 506 -32 332 1468 2032 1694 954
579 1028 449 -716 153 564 -80 337 1619 2388 2016 1130
526 1160 634 -803 66 740 -119 230 1692 2709 2299 1271
623 1067 445 -843 -52 899 -130 98 1731 2992 2553 1408
677 1038 362 -845 90 757 -131 -18 1784 3168 2694 1501
545 1067 523 -857 158 701 -73 1 1945 3363 2850 1593
458 941 481 -806 12 796 -127 -189 1852 3592 2963 1593
390 668 278 -699 -9 713 -166 -584 1408 3568 2943 1598
253 468 214 -528 57 474 -93 -780 1027 3143 2675 1496
161 375 213 -359 20 342 -35 -883 695 2650 2215 1218
29 370 340 -267 -24 296 125 -790 357 2006 1542 812
0 346 345 -198 -153 357 231 -800 -96 918 483 248
14 351 335 -172 -170 347 304 -780 -384 43 -195 -112
4 341 335 -181 -158 345 260 -917 -779 -248 -336 -224
9 312 301 -172 -163 340 196 -941 -838 -561 -473 -322
0 278 276 -159 -143 308 162 -844 -726 -546 -429 -302
-19 200 219 -137 -136 279 176 -678 -595 -429 -361 -268
-9 195 204 -89 -118 211 195 -541 -483 -336 -287 -229
9 185 174 -91 -106 201 214 -439 -400 -258 -224 -185
53 195 140 -96 -80 181 243 -336 -278 -209 -195 -175
151 239 87 -123 -41 169 252 -244 -170 -117 -126 -131
141 278 136 -193 32 164 242 -136 -48 -29 -68 -107
146 346 198 -208 3 208 276 0 90 82 14 -58
161 424 262 -245 -24 274 344 141 232 200 102 5
136 473 335 -291 -48 345 359 200 334 307 180 54
136 536 398 -303 -97 406 338 214 407 409 263 118
146 590 442 -335 -129 469 332 263 495 483 326 171
117 610 491 -367 -146 518 332 317 582 569 390 210
151 683 530 -362 -185 552 313 292 616 652 453 264
170 707 535 -417 -187 608 287 253 626 691 492 288
146 707 559 -438 -180 623 278 243 655 716 517 308
161 751 589 -426 -204 635 258 218 660 755 556 342
131 741 608 -456 -212 672 252 218 675 774 570 357
122 746 623 -436 -236 677 251 233 712 798 595 371
136 771 633 -434 -248 686 237 233 722 832 619 398
122 756 633 -453 -246 703 241 243 736 847 634 408
158 786 627 -438 -253 696 240 252 751 866 649 417
187 820 632 -470 -233 708 226 238 746 881 663 422
158 806 646 -502 -221 728 236 246 761 876 658 417
158 811 651 -480 -243 728 236 256 774 895 676 432
158 806 646 -482 -245 733 235 251 774 905 686 451
128 767 637 -480 -243 728 234 251 784 910 690 451
133 781 646 -446 -252 703 224 246 779 920 695 456
138 796 656 -456 -255 716 223 242 774 914 695 456
143 801 656 -465 -257 728 228 246 784 914 690 447
187 840 651 -470 -255 730 218 242 782 919 700 456
177 835 656 -512 -230 747 223 246 787 919 695 457
163 820 656 -504 -238 747 227 261 802 929 705 462
167 825 656 -490 -245 740 226 256 802 943 725 477
128 791 661 -495 -243 742 226 261 806 943 725 477
143 801 656 -458 -264 728 226 261 811 948 725 482
158 821 661 -470 -255 730 220 251 805 953 730 482
138 812 671 -487 -249 742 220 256 815 948 720 472
182 856 671 -473 -263 742 215 255 815 958 730 477
197 860 661 -517 -242 764 219 255 820 958 725 477
177 836 656 -526 -229 762 224 270 835 963 730 477
192 860 666 -504 -237 747 223 270 838 977 744 492
158 831 671 -524 -234 764 218 265 838 977 749 494
148 816 666 -492 -254 752 222 275 847 982 749 494
182 836 651 -480 -256 742 217 265 843 991 754 503
167 826 656 -507 -232 745 217 270 843 981 749 494
182 856 671 -495 -242 742 217 270 852 986 754 489
206 880 671 -517 -242 764 216 270 846 996 754 494
192 865 671 -541 -229 777 220 280 861 991 754 489
192 870 676 -526 -237 769 220 284 871 1005 769 498
197 865 666 -529 -239 774 220 289 871 1019 778 513
159 836 676 -529 -232 767 224 294 881 1019 778 513
159 846 685 -497 -256 757 214 294 881 1034 788 518
168 860 690 -501 -261 767 214 289 879 1034 783 513
188 860 671 -514 -259 777 218 289 883 1034 782 504
222 899 676 -523 -239 767 207 289 883 1039 787 509
203 895 690 -560 -224 789 212 294 893 1039 787 504
193 885 690 -548 -242 794 217 309 913 1053 797 509
207 895 685 -538 -246 789 211 309 913 1073 821 529
168 856 685 -550 -237 791 211 314 921 1072 821 529
168 860 690 -511 -256 772 216 319 926 1087 831 538
178 885 705 -514 -259 777 211 308 921 1092 836 543
173 880 705 -531 -261 796 210 313 931 1092 831 529
222 914 690 -526 -263 794 209 318 941 1101 841 538
222 924 700 -567 -232 803 204 318 941 1106 846 543
193 904 710 -572 -237 813 208 332 959 1111 851 543
207 924 715 -548 -256 808 203 332 963 1135 870 565
173 890 715 -565 -251 821 208 342 973 1140 875 575
164 875 710 -531 -268 803 208 351 988 1150 890 579
188 899 710 -519 -271 794 197 341 983 1165 899 589
173 895 720 -543 -259 806 196 346 987 1165 894 579
198 924 724 -533 -271 808 196 351 997 1170 899 584
212 948 734 -560 -261 825 196 351 1001 1179 914 594
207 934 724 -580 -259 843 195 365 1021 1184 914 594
222 948 724 -570 -256 830 195 375 1031 1209 938 609
212 943 729 -584 -249 838 200 380 1036 1217 948 619
178 914 734 -577 -256 838 199 390 1058 1227 958 623
198 924 724 -545 -276 825 184 395 1063 1247 977 639
203 938 734 -560 -261 825 188 395 1063 1252 977 639
198 938 739 -570 -263 838 188 404 1073 1256 982 634
237 987 749 -567 -268 840 182 409 1078 1265 992 644
229 983 753 -611 -254 869 187 419 1092 1275 997 644
229 969 738 -604 -260 869 192 439 1116 1285 1012 654
239 988 748 -597 -253 855 192 447 1120 1314 1036 678
205 949 743 -611 -253 869 191 457 1140 1319 1044 678
209 959 748 -575 -267 847 190 467 1150 1334 1053 688
219 979 758 -582 -267 855 180 467 1155 1348 1068 702
209 974 762 -597 -267 869 190 482 1169 1348 1068 693
263 1018 753 -589 -275 869 184 496 1177 1363 1078 702
263 1027 762 -638 -243 886 184 506 1187 1373 1093 709
249 1013 762 -644 -248 896 194 525 1206 1381 1097 709
253 1032 777 -629 -255 889 193 540 1221 1401 1122 734
209 998 787 -642 -260 906 197 550 1226 1411 1132 744
209 988 777 -603 -287 894 202 569 1245 1420 1141 748
234 1013 777 -598 -282 884 197 574 1239 1435 1156 758
224 1008 782 -622 -270 896 201 584 1244 1430 1151 753
253 1037 782 -615 -277 896 201 599 1259 1435 1156 753
268 1052 782 -644 -262 911 201 608 1259 1445 1166 758
253 1037 782 -659 -255 918 210 628 1274 1440 1161 758
253 1042 787 -644 -262 911 219 647 1281 1455 1175 768
249 1037 787 -646 -265 916 218 657 1281 1459 1185 779
214 1008 792 -642 -267 913 233 672 1296 1455 1180 779
219 1018 797 -610 -287 901 232 682 1291 1459 1190 788
244 1022 777 -617 -287 908 232 682 1281 1455 1185 784
244 1027 782 -632 -265 901 242 696 1291 1445 1175 774
263 1057 792 -634 -267 906 237 701 1280 1445 1180 774
249 1052 801 -659 -262 925 250 715 1285 1434 1171 769
234 1037 801 -649 -275 928 259 729 1290 1429 1171 769
253 1052 797 -634 -282 921 259 729 1280 1434 1175 779
219 1008 787 -651 -270 925 269 739 1280 1419 1166 774
214 1003 787 -612 -282 899 273 744 1280 1419 1166 779
235 1028 792 -607 -284 896 273 739 1259 1409 1161 779
210 1009 797 -629 -276 911 278 744 1254 1384 1141 761
245 1043 797 -607 -291 904 277 743 1244 1379 1141 756
250 1053 801 -642 -274 921 281 743 1234 1370 1131 751
225 1023 797 -649 -274 928 290 753 1239 1355 1116 742
250 1038 787 -622 -283 911 290 748 1230 1355 1121 756
201 1004 801 -642 -266 913 294 748 1219 1340 1111 751
171 980 806 -600 -298 904 299 748 1214 1326 1101 742
201 994 792 -573 -315 894 294 733 1190 1321 1092 742
201 980 777 -595 -293 894 299 728 1175 1291 1067 722
206 999 792 -588 -286 879 298 719 1165 1276 1048 707
230 1019 787 -600 -291 896 297 709 1148 1261 1038 698
215 989 772 -622 -276 904 307 709 1144 1237 1013 684
206 984 777 -600 -276 882 307 704 1139 1232 1009 684
215 975 758 -593 -283 882 316 694 1124 1217 1004 679
171 927 753 -593 -269 867 320 689 1114 1203 979 665
162 927 762 -548 -287 841 316 670 1095 1193 970 660
171 932 758 -544 -297 846 315 654 1069 1168 945 640
191 932 738 -551 -290 846 318 644 1060 1149 921 621
201 956 753 -561 -270 836 309 630 1045 1134 911 611
181 937 753 -578 -273 856 314 620 1035 1115 891 596
