176 440 263 -309 -36 351 -325 -49 378 102 142 82
176 440 263 -309 -36 351 -325 -49 378 102 142 82
157 440 282 -306 -41 353 101 132 67 92 127 68
142 449 307 -296 -61 363 111 142 76 176 104 67
142 440 297 -294 -80 380 120 147 81 186 110 72
152 444 292 -289 -75 370 120 142 81 191 119 81
137 434 296 -296 -68 370 120 132 71 191 114 77
127 424 295 -284 -78 366 120 137 76 181 105 62
161 433 271 -274 -83 361 106 122 57 186 110 67
171 457 285 -296 -53 354 101 122 52 167 90 52
152 438 285 -312 -56 373 106 132 67 167 90 47
166 447 279 -293 -64 364 111 132 71 176 105 67
161 437 274 -305 -55 365 115 137 71 176 100 62
137 417 279 -298 -55 358 111 132 71 181 100 57
127 417 289 -276 -68 350 106 132 67 176 100 62
127 446 318 -270 -78 355 126 142 71 171 95 57
157 437 278 -285 -93 384 121 132 62 181 100 62
157 422 263 -294 -59 359 102 122 57 171 90 52
132 431 297 -287 -51 344 102 132 67 171 90 47
161 440 277 -280 -81 366 102 132 67 186 101 62
152 439 287 -299 -55 361 112 127 63 181 96 62
161 430 267 -294 -65 366 122 137 72 176 91 52
157 439 281 -294 -50 351 113 127 63 181 101 62
152 438 286 -297 -60 362 113 132 68 171 91 52
152 448 296 -294 -65 365 117 138 68 176 96 52
147 453 306 -299 -70 374 122 143 68 181 101 62
127 434 305 -299 -77 381 113 138 69 176 96 57
171 458 284 -280 -87 371 117 138 64 176 96 57
147 458 308 -313 -55 372 122 143 69 171 91 57
132 433 299 -301 -79 385 117 143 73 171 96 62
152 428 274 -281 -81 367 113 133 69 186 106 72
166 436 268 -288 -59 353 113 124 59 176 96 62
157 456 298 -301 -48 355 122 139 73 171 86 47
152 446 293 -306 -68 380 113 139 69 181 96 57
176 441 264 -298 -68 371 113 134 64 180 91 57
152 455 303 -308 -41 354 108 129 59 175 88 52
142 474 331 -303 -73 381 103 134 69 175 98 62
152 455 301 -307 -92 404 113 144 78 190 108 72
157 455 296 -302 -72 380 117 144 74 190 108 67
152 445 291 -305 -67 377 133 149 79 190 103 62
147 450 301 -297 -67 369 118 144 65 190 103 62
158 459 300 -297 -74 377 118 144 70 175 88 47
177 464 285 -306 -69 382 133 158 79 180 98 52
182 487 304 -318 -52 377 138 168 84 185 98 52
197 487 290 -333 -59 398 148 178 99 189 108 62
177 492 314 -340 -45 390 157 184 104 204 117 77
158 481 323 -333 -67 405 157 194 118 204 117 72
187 476 288 -318 -80 405 153 189 109 218 122 81
187 476 288 -330 -49 384 162 194 109 208 113 72
187 467 278 -330 -49 384 167 208 123 208 113 67
182 462 278 -325 -43 374 177 218 133 218 122 81
197 476 277 -321 -45 371 188 228 138 223 123 81
216 519 301 -335 -38 379 193 228 138 228 128 86
231 539 306 -367 -40 413 168 218 133 233 138 101
211 518 306 -384 -35 425 154 223 138 233 143 101
182 509 326 -364 -45 414 149 218 134 238 148 101
201 499 296 -344 -69 419 158 223 139 238 143 101
226 504 275 -349 -44 399 179 228 144 243 148 96
221 508 285 -364 -22 391 169 223 144 252 153 111
216 488 270 -364 -30 398 164 228 144 243 143 101
206 473 265 -351 -25 380 155 223 139 243 143 106
216 478 259 -339 -27 371 145 213 130 233 138 106
221 488 264 -346 -20 371 150 213 130 223 138 106
201 488 284 -354 -20 378 135 203 120 223 138 106
197 507 308 -343 -39 388 130 194 116 218 133 101
177 496 318 -350 -53 410 130 194 116 212 123 86
211 510 297 -336 -68 409 135 195 120 212 130 91
211 491 278 -360 -41 406 120 170 106 227 140 101
206 491 282 -349 -30 387 116 165 106 217 130 91
221 519 296 -347 -35 388 106 156 101 217 135 96
221 505 282 -369 -35 410 101 146 96 217 135 101
187 495 305 -362 -28 394 96 141 96 222 140 106
192 495 300 -340 -57 402 106 146 101 217 140 101
197 490 291 -342 -52 399 111 152 107 227 150 111
187 485 295 -342 -44 392 96 142 97 227 140 101
201 484 281 -335 -51 392 107 152 92 217 130 96
197 455 255 -342 -36 384 102 147 82 212 130 96
187 439 251 -325 -27 357 112 152 87 188 106 77
197 454 254 -313 -29 347 112 142 82 193 111 86
182 468 284 -325 -27 357 117 147 87 188 106 81
177 478 298 -325 -49 378 102 142 82 198 116 86
162 458 292 -327 -58 390 92 127 68 198 111 81
160 458 297 -309 -63 377 92 127 73 183 97 62
174 487 312 -307 -67 379 92 127 68 188 97 67
164 477 312 -329 -67 401 102 132 73 183 92 62
150 462 312 -319 -72 396 102 132 77 183 92 62
160 492 330 -304 -78 389 102 137 77 188 102 72
160 452 291 -324 -83 412 108 128 68 183 97 67
140 421 281 -304 -64 373 98 119 53 173 87 57
155 446 290 -280 -69 354 108 123 58 159 77 47
164 431 266 -299 -66 370 88 114 54 168 82 57
140 441 299 -296 -49 350 78 114 59 168 77 52
150 445 294 -289 -77 371 88 128 74 178 87 57
160 455 294 -296 -70 371 94 123 69 188 97 62
145 450 304 -306 -65 376 89 114 64 183 87 52
145 445 299 -295 -77 379 109 133 74 183 87 47
135 430 293 -293 -75 374 99 123 65 187 92 57
160 450 288 -280 -77 364 89 114 55 172 82 47
169 454 283 -302 -63 370 99 119 60 163 75 38
155 454 297 -310 -55 370 94 128 65 167 75 47
155 448 292 -302 -70 378 99 123 55 172 79 47
150 443 291 -300 -67 372 99 128 60 163 75 42
155 448 291 -295 -69 369 84 123 60 167 79 47
160 467 306 -300 -67 371 89 123 65 172 84 47
150 447 296 -312 -70 388 104 128 79 182 89 52
164 432 267 -298 -70 373 109 128 75 192 99 67
150 417 266 -298 -48 351 119 133 75 181 84 52
164 422 256 -283 -56 344 123 143 75 171 79 47
160 417 255 -292 -44 341 114 144 71 171 79 52
169 431 260 -287 -46 338 119 149 76 166 75 42
164 421 255 -299 -43 348 119 154 85 176 79 42
135 391 254 -292 -43 341 120 154 80 181 84 52
135 376 240 -262 -57 325 129 163 80 176 79 47
169 337 168 -255 -50 310 163 207 95 166 65 28
189 313 124 -253 2 253 188 256 120 166 56 13
184 331 148 -250 33 219 202 311 144 171 46 -1
184 385 199 -257 19 241 212 340 163 176 41 -15
223 439 215 -283 -6 295 212 369 193 176 32 -35
272 502 229 -330 4 329 237 433 271 205 46 -25
325 571 244 -386 22 367 246 496 339 279 115 23
360 615 253 -447 42 408 251 555 412 347 178 77
389 677 287 -486 54 435 276 672 529 420 242 140
467 770 301 -531 52 483 300 794 656 528 344 223
556 832 277 -617 84 537 330 935 827 640 446 321
678 935 257 -692 140 555 355 1067 974 791 588 438
771 1037 267 -804 211 597 296 1053 1028 928 705 550
824 1101 276 -902 252 653 228 984 1057 1019 817 668
868 1148 281 -961 274 689 150 872 1057 1117 954 824
873 1192 319 -1007 295 716 91 774 1038 1200 1081 976
878 1241 363 -1031 278 758 4 600 960 1249 1166 1083
829 1251 421 -1058 258 803 -107 346 818 1259 1220 1161
766 1222 454 -1039 205 837 -234 48 629 1210 1224 1205
736 1230 493 -992 156 840 -292 -234 400 1132 1200 1224
536 1313 775 -983 122 863 -356 -478 185 995 1107 1176
302 1371 1068 -924 -118 1046 -448 -717 -24 849 995 1098
117 1346 1229 -835 -381 1221 -463 -888 -156 692 873 1010
-19 1268 1288 -730 -554 1289 -424 -1015 -278 610 805 966
-39 1180 1220 -623 -652 1279 -409 -1141 -444 527 741 912
-24 1062 1087 -569 -628 1201 -429 -1283 -624 366 590 785
-48 950 999 -518 -555 1077 -483 -1361 -746 190 429 644
-9 857 867 -450 -522 976 -502 -1337 -790 53 287 517
14 740 723 -423 -436 863 -536 -1312 -824 -39 190 424
0 657 655 -376 -352 734 -585 -1273 -834 -117 107 341
9 594 582 -328 -325 659 -585 -1185 -809 -175 39 273
29 554 523 -300 -284 589 -566 -1093 -774 -214 -24 190
68 534 465 -290 -245 540 -527 -985 -726 -244 -77 117
92 504 410 -300 -195 500 -463 -849 -628 -253 -116 63
107 470 361 -297 -156 459 -360 -688 -516 -204 -96 58
126 460 331 -287 -124 417 -257 -507 -394 -136 -67 63
156 485 326 -292 -100 398 -160 -336 -272 -68 -38 58
161 493 331 -318 -83 408 -111 -239 -213 0 1 63
146 454 306 -326 -83 414 -77 -150 -150 19 1 48
175 454 276 -299 -78 382 -38 -86 -101 63 25 63
170 469 296 -313 -49 368 -13 -52 -86 87 40 68
131 435 301 -318 -61 384 1 -8 -52 82 20 43
126 434 306 -282 -82 369 15 20 -23 97 35 48
156 453 295 -279 -87 370 35 44 -8 122 49 58
146 447 300 -304 -67 375 59 79 15 125 49 48
131 428 294 -296 -74 375 74 99 30 145 54 53
141 423 279 -279 -78 363 80 109 35 150 54 48
161 433 269 -282 -66 353 75 114 36 150 54 39
141 417 273 -296 -52 353 70 114 41 145 51 39
146 407 259 -278 -64 348 80 143 65 140 51 39
122 417 293 -276 -54 335 80 143 70 164 66 48
133 398 264 -269 -82 357 89 148 65 169 66 48
128 398 268 -264 -63 332 115 148 60 160 56 39
138 402 263 -261 -68 334 125 158 71 150 46 29
148 397 248 -269 -60 333 134 167 76 154 46 35
148 406 257 -271 -48 324 144 182 90 159 51 35
148 410 262 -276 -53 333 129 177 85 163 56 40
124 425 301 -277 -56 338 110 163 71 159 56 35
128 420 290 -272 -87 365 105 163 76 154 46 30
138 410 270 -272 -80 357 110 164 81 159 56 35
128 399 270 -272 -64 342 120 178 95 168 61 44
153 414 261 -263 -69 337 110 183 95 178 71 49
163 424 261 -281 -52 340 105 173 85 178 71 49
133 419 285 -291 -46 344 105 178 95 173 66 40
133 404 269 -274 -73 353 115 183 100 173 72 49
153 408 254 -267 -66 338 105 178 91 183 77 54
153 423 268 -279 -49 333 110 178 91 173 62 40
133 422 288 -286 -56 347 125 188 101 168 62 40
138 402 263 -276 -75 357 115 183 91 178 77 54
143 397 253 -269 -60 335 120 188 96 168 62 40
153 397 243 -269 -53 327 140 188 96 168 62 40
143 392 248 -274 -43 322 140 193 96 168 62 40
148 401 253 -267 -50 322 135 198 101 163 57 35
167 421 253 -274 -50 328 130 198 101 163 57 40
148 411 261 -293 -40 338 140 207 111 163 62 40
158 406 246 -278 -55 337 140 198 101 172 67 54
158 401 241 -280 -43 327 135 193 96 162 52 40
148 386 236 -278 -40 322 130 198 101 158 52 35
148 395 246 -266 -42 313 135 203 106 162 52 40
163 399 235 -270 -47 322 140 203 101 172 64 44
167 409 240 -280 -34 320 140 204 101 167 59 40
163 399 235 -288 -33 326 135 204 106 167 59 40
158 379 220 -280 -33 319 122 199 102 172 64 44
177 398 220 -268 -29 302 122 208 112 172 59 44
167 418 249 -287 -19 311 122 208 117 182 74 54
172 423 248 -291 -38 335 122 208 112 182 74 54
163 413 248 -296 -36 337 122 213 117 177 64 49
163 408 243 -287 -40 332 122 214 112 182 69 54
158 412 253 -284 -37 327 132 219 123 172 59 44
158 422 261 -283 -45 334 132 219 118 182 69 54
172 416 242 -288 -50 344 132 214 113 177 69 54
167 411 242 -293 -32 331 132 219 118 172 59 44
173 401 227 -288 -35 328 137 219 118 177 64 54
154 401 247 -286 -25 316 152 229 123 172 64 54
144 386 241 -276 -45 326 162 239 137 177 69 54
183 410 225 -264 -47 315 152 234 128 192 85 64
193 415 220 -295 -19 320 142 234 128 187 75 59
173 405 230 -303 -12 319 147 239 137 182 70 54
178 410 230 -288 -27 319 142 239 137 197 85 64
183 415 229 -293 -23 321 147 239 137 192 80 64
178 404 224 -298 -21 324 142 239 138 192 80 64
178 419 239 -290 -21 316 147 250 143 192 80 69
168 413 244 -297 -28 330 152 254 148 197 85 64
173 413 239 -289 -35 330 152 259 153 197 85 69
178 432 252 -292 -30 328 152 259 148 201 89 74
183 426 242 -304 -34 344 147 259 148 200 85 64
203 422 217 -304 -27 336 138 254 143 196 85 69
193 422 227 -311 -5 321 138 264 153 196 80 64
178 417 237 -306 -15 326 143 269 163 205 89 74
178 417 236 -297 -27 328 148 274 163 210 94 83
193 422 226 -297 -27 328 153 284 168 215 99 83
203 445 241 -305 -15 326 143 284 168 220 101 83
203 455 250 -323 -17 345 138 284 172 215 101 83
212 459 246 -327 -22 354 143 293 182 215 101 83
217 478 259 -335 -14 354 138 293 182 230 111 93
227 488 258 -346 -19 371 133 298 182 229 116 103
217 464 244 -356 -14 375 129 298 182 229 116 103
212 467 253 -339 -10 355 119 298 188 229 116 98
217 487 268 -339 -18 362 134 313 198 234 121 103
232 492 257 -351 -23 379 144 323 208 239 126 108
237 497 257 -361 -10 376 139 323 208 248 135 113
232 516 282 -365 -8 379 134 328 208 248 131 113
242 531 286 -373 -23 401 134 343 222 253 131 118
251 530 277 -385 -19 409 130 338 218 263 145 132
256 534 276 -390 -9 405 126 348 228 258 145 127
247 529 281 -395 -7 407 121 348 233 273 155 137
261 524 260 -387 -14 407 126 358 238 273 156 137
247 524 275 -392 3 394 126 363 243 282 161 142
256 538 280 -385 -12 401 131 377 257 287 166 147
281 542 259 -396 -9 410 135 383 267 302 180 157
276 562 283 -411 13 403 135 393 277 307 190 166
290 582 288 -418 -2 425 131 393 277 317 200 181
310 572 260 -435 4 437 121 388 277 321 205 186
278 577 298 -440 26 417 106 383 272 321 205 181
292 576 282 -425 -8 438 106 388 282 321 205 186
297 571 273 -433 7 431 106 393 283 331 214 191
288 599 311 -433 15 424 106 398 288 335 219 197
302 619 316 -442 -10 457 101 398 288 340 224 202
322 623 301 -459 -5 469 106 398 293 340 224 202
302 619 315 -471 12 463 96 393 283 340 229 206
302 622 320 -459 -5 468 96 393 288 335 224 206
302 608 305 -461 -6 473 101 393 293 340 234 211
302 593 290 -453 1 458 112 398 297 345 241 221
292 588 295 -445 8 444 102 394 288 355 246 226
297 593 294 -438 1 444 112 399 297 345 236 216
302 603 299 -443 3 445 112 399 293 355 246 231
302 607 303 -450 3 452 112 399 293 350 246 226
307 596 288 -453 1 457 107 389 293 350 246 226
307 606 298 -450 11 444 107 384 288 355 251 236
302 601 297 -455 6 454 102 379 283 355 251 236
302 611 307 -450 4 450 97 375 278 350 251 236
288 590 302 -455 0 460 102 370 278 350 251 236
283 590 307 -438 -5 448 102 370 279 350 251 236
292 600 307 -436 -9 450 102 365 279 350 251 236
292 590 296 -445 -4 455 103 365 274 350 251 236
283 605 320 -440 1 444 103 365 274 350 246 231
297 600 300 -442 -17 464 98 355 269 350 251 236
297 575 275 -447 1 452 98 345 259 345 246 231
263 560 295 -435 13 427 103 340 265 340 242 221
263 569 304 -410 -13 429 103 340 260 340 247 231
292 564 270 -415 -18 439 109 340 260 340 242 226
278 564 284 -427 14 418 109 335 260 340 242 226
278 559 279 -420 -1 425 104 326 246 340 242 226
283 558 274 -418 2 420 109 331 251 330 232 211
263 558 293 -419 6 418 109 321 246 330 232 216
249 553 303 -409 -13 428 109 317 236 325 227 211
263 543 277 -400 -25 429 104 307 231 320 222 206
263 533 268 -402 -6 412 99 297 216 310 213 202
239 532 292 -397 0 402 119 302 226 300 203 192
229 532 301 -384 -24 414 119 297 216 310 213 197
253 536 281 -379 -34 418 109 283 203 300 203 187
234 512 276 -394 -11 410 114 278 198 285 183 172
249 512 262 -372 -18 395 119 279 203 276 178 163
258 522 262 -379 -4 388 124 274 198 280 183 172
240 506 266 -389 1 393 129 274 198 276 180 167
215 487 270 -372 -11 388 124 264 193 280 185 167
220 487 265 -350 -26 381 124 250 174 276 180 163
215 477 260 -352 -20 377 134 255 174 255 161 143
206 472 265 -345 -20 370 135 245 169 255 161 143
186 467 278 -338 -27 370 135 240 159 250 151 138
210 486 273 -325 -44 374 130 230 154 240 141 128
225 486 259 -347 -30 381 135 225 154 236 137 119
210 465 254 -354 -15 373 130 220 144 236 141 128
191 480 288 -337 -20 361 135 225 149 226 132 114
191 480 287 -334 -47 385 130 211 139 231 141 128
181 460 277 -334 -47 385 125 206 130 221 127 114
186 484 296 -319 -46 371 120 197 125 216 122 104
181 474 291 -334 -53 391 125 192 116 211 117 104
181 454 271 -327 -53 384 125 192 116 206 112 89
206 454 246 -317 -42 365 125 187 116 201 108 94
191 449 256 -329 -18 352 126 187 111 201 113 94
181 458 275 -318 -30 354 126 187 116 196 108 94
181 463 280 -318 -45 369 131 187 116 201 113 99
176 467 290 -321 -47 372 126 177 102 206 113 99
157 457 299 -321 -54 380 126 177 102 192 103 84
176 447 269 -305 -68 380 126 173 97 192 98 84
186 447 259 -310 -44 360 127 173 97 192 103 84
176 451 273 -315 -34 355 137 177 107 186 98 80
181 461 278 -313 -46 364 127 168 97 195 108 99
176 446 267 -320 -46 371 127 168 93 186 98 84
147 437 287 -310 -44 359 122 158 88 181 94 80
152 456 302 -291 -68 363 127 158 88 181 94 80
157 442 282 -303 -73 380 137 163 88 181 94 80
147 421 272 -298 -61 362 132 158 83 186 94 80
147 436 286 -283 -60 347 141 163 88 181 89 75
137 454 315 -291 -67 362 141 173 98 181 96 75
157 459 300 -295 -87 386 141 168 94 191 105 89
167 454 285 -308 -69 382 132 154 79 191 105 89
167 440 270 -310 -56 372 132 159 84 176 91 75
162 439 274 -302 -49 356 127 154 79 181 96 84
147 439 289 -299 -54 359 132 159 84 176 91 75
157 443 284 -292 -69 366 137 164 84 181 96 80
167 429 259 -299 -61 365 132 154 79 181 96 80
157 424 264 -297 -43 345 137 159 79 176 91 70
162 442 278 -290 -50 344 138 165 84 181 91 75
154 447 293 -302 -55 362 138 170 89 186 100 84
149 437 287 -299 -68 371 133 165 84 186 100 84
169 451 282 -291 -68 364 128 160 84 186 100 84
164 446 282 -308 -55 369 133 165 84 186 100 84
154 432 276 -303 -58 365 133 170 84 186 100 84
164 440 276 -291 -60 356 128 170 84 191 100 84
178 445 266 -301 -55 361 138 175 89 186 101 80
183 440 256 -310 -42 358 138 175 94 191 101 80
183 445 261 -310 -35 350 128 170 90 195 111 94
173 445 270 -312 -37 355 128 175 95 195 106 89
144 436 290 -307 -46 359 128 184 104 195 111 89
173 444 269 -288 -70 363 129 179 99 205 116 99
183 439 254 -307 -46 359 124 179 99 200 111 89
173 448 274 -310 -34 349 129 185 105 199 111 89
198 468 268 -310 -48 363 124 185 100 204 116 94
193 468 273 -332 -34 370 129 185 105 199 111 84
198 468 268 -329 -38 372 124 185 110 204 121 94
188 452 263 -332 -33 370 125 185 105 204 121 99
198 442 244 -319 -35 359 125 190 115 204 121 99
183 433 248 -319 -21 344 125 190 115 214 126 104
173 437 262 -306 -30 341 130 200 120 214 131 104
203 442 237 -304 -43 351 135 210 125 219 131 104
217 446 227 -321 -16 341 130 200 120 224 138 109
203 456 251 -331 -4 338 130 205 125 218 133 99
198 484 286 -328 -23 356 125 200 125 223 138 109
208 474 265 -340 -42 387 125 200 121 223 138 109
193 435 241 -340 -27 372 120 200 126 223 138 109
208 450 241 -313 -22 340 115 195 121 223 138 109
193 449 255 -328 -14 347 120 195 121 223 138 109
183 444 260 -320 -28 354 120 205 126 223 138 104
198 449 249 -312 -36 354 120 200 131 233 138 109
208 454 244 -322 -24 350 115 200 126 237 147 109
208 464 253 -330 -16 350 120 200 131 228 138 104
212 464 248 -334 -21 360 115 195 126 237 147 109
212 463 248 -336 -15 357 105 191 121 233 143 109
222 453 228 -336 -15 357 106 186 121 223 138 99
203 447 243 -336 -1 342 116 186 121 223 138 99
198 432 233 -324 -18 347 126 201 131 223 134 99
203 452 247 -314 -15 334 121 191 121 233 144 109
217 451 233 -326 -20 352 121 191 121 228 139 99
227 451 222 -333 -5 343 126 196 126 223 134 94
223 456 231 -338 4 338 111 187 121 228 144 104
194 436 241 -338 -3 345 111 187 116 223 139 99
184 436 250 -314 -22 340 106 178 117 223 134 99
199 451 250 -309 -31 345 116 182 117 217 134 100
184 445 259 -324 -24 352 121 182 117 222 134 100
204 440 235 -314 -35 354 121 182 117 222 134 95
209 439 230 -320 -13 339 117 173 107 217 129 90
199 434 235 -323 -8 336 117 178 113 212 119 81
209 444 235 -315 -16 336 112 168 108 212 129 90
218 464 243 -325 -11 340 107 163 103 212 129 95
204 448 242 -340 -11 355 107 168 108 202 119 85
194 433 238 -325 -17 347 98 158 99 207 129 90
179 433 252 -313 -20 337 103 158 99 202 121 85
194 428 233 -306 -34 344 113 163 103 202 121 81
199 443 241 -310 -17 332 103 154 94 207 126 85
194 443 246 -319 -20 344 113 159 99 197 116 76
179 437 256 -317 -24 347 113 159 99 207 126 85
179 447 266 -307 -37 348 108 149 89 207 126 90
184 436 251 -312 -41 358 108 154 94 192 111 76
174 436 260 -308 -32 346 113 154 95 202 121 85
199 436 235 -304 -40 349 108 144 85 197 121 85
179 435 254 -316 -16 337 113 149 90 188 106 71
184 445 259 -306 -36 346 113 149 90 197 116 81
194 430 235 -313 -35 353 108 144 80 197 116 81
184 421 234 -311 -18 334 108 149 85 188 102 66
194 440 243 -301 -22 329 108 149 85 192 111 81
194 440 243 -316 -22 344 113 149 85 192 116 81
165 424 258 -316 -22 343 113 144 85 192 116 81
174 429 253 -294 -44 343 103 140 75 197 122 85
199 428 228 -301 -36 343 108 140 75 188 112 76
199 433 232 -313 -12 330 109 144 80 188 112 76
179 428 246 -316 -14 334 104 135 75 192 117 76
174 433 256 -304 -31 339 100 135 70 178 103 66
179 437 256 -303 -38 345 100 135 75 177 103 66
179 442 260 -307 -36 348 109 140 80 182 107 76
179 437 255 -310 -38 353 109 141 75 187 117 81
179 437 255 -307 -36 348 104 131 70 182 112 81
165 427 260 -307 -36 348 100 126 66 182 107 71
155 418 260 -295 -45 344 104 136 71 172 98 61
165 431 264 -285 -50 340 109 136 71 182 107 71
180 441 259 -298 -47 349 104 136 76 182 103 71
180 440 258 -310 -37 352 109 136 76 182 107 66
176 440 263 -309 -36 351 100 131 66 182 107 76
157 440 282 -306 -41 353 101 132 67 177 104 66
142 449 307 -296 -61 363 111 142 76 176 104 67
142 440 297 -294 -80 380 120 147 81 186 110 72
152 444 292 -289 -75 370 120 142 81 191 119 81
137 434 296 -296 -68 370 120 132 71 191 114 77
127 424 295 -284 -78 366 120 137 76 181 105 62
161 433 271 -274 -83 361 106 122 57 186 110 67
171 457 285 -296 -53 354 101 122 52 167 90 52
152 438 285 -312 -56 373 106 132 67 167 90 47
166 447 279 -293 -64 364 111 132 71 176 105 67
161 437 274 -305 -55 365 115 137 71 176 100 62
137 417 279 -298 -55 358 111 132 71 181 100 57
127 417 289 -276 -68 350 106 132 67 176 100 62
127 446 318 -270 -78 355 126 142 71 171 95 57
157 437 278 -285 -93 384 121 132 62 181 100 62
157 422 263 -294 -59 359 102 122 57 171 90 52
132 431 297 -287 -51 344 102 132 67 171 90 47
161 440 277 -280 -81 366 102 132 67 186 101 62
152 439 287 -299 -55 361 112 127 63 181 96 62
161 430 267 -294 -65 366 122 137 72 176 91 52
157 439 281 -294 -50 351 113 127 63 181 101 62
152 438 286 -297 -60 362 113 132 68 171 91 52
152 448 296 -294 -65 365 117 138 68 176 96 52
147 453 306 -299 -70 374 122 143 68 181 101 62
127 434 305 -299 -77 381 113 138 69 176 96 57
171 458 284 -280 -87 371 117 138 64 176 96 57
147 458 308 -313 -55 372 122 143 69 171 91 57
132 433 299 -301 -79 385 117 143 73 171 96 62
152 428 274 -281 -81 367 113 133 69 186 106 72
166 436 268 -288 -59 353 113 124 59 176 96 62
157 456 298 -301 -48 355 122 139 73 171 86 47
152 446 293 -306 -68 380 113 139 69 181 96 57
176 441 264 -298 -68 371 113 134 64 180 91 57
152 455 303 -308 -41 354 108 129 59 175 88 52
142 474 331 -303 -73 381 103 134 69 175 98 62
152 455 301 -307 -92 404 113 144 78 190 108 72
157 455 296 -302 -72 380 117 144 74 190 108 67
152 445 291 -305 -67 377 133 149 79 190 103 62
147 450 301 -297 -67 369 118 144 65 190 103 62
158 459 300 -297 -74 377 118 144 70 175 88 47
177 464 285 -306 -69 382 133 158 79 180 98 52
182 487 304 -318 -52 377 138 168 84 185 98 52
197 487 290 -333 -59 398 148 178 99 189 108 62
177 492 314 -340 -45 390 157 184 104 204 117 77
158 481 323 -333 -67 405 157 194 118 204 117 72
187 476 288 -318 -80 405 153 189 109 218 122 81
187 476 288 -330 -49 384 162 194 109 208 113 72
187 467 278 -330 -49 384 167 208 123 208 113 67
182 462 278 -325 -43 374 177 218 133 218 122 81
197 476 277 -321 -45 371 188 228 138 223 123 81
216 519 301 -335 -38 379 193 228 138 228 128 86
231 539 306 -367 -40 413 168 218 133 233 138 101
211 518 306 -384 -35 425 154 223 138 233 143 101
182 509 326 -364 -45 414 149 218 134 238 148 101
201 499 296 -344 -69 419 158 223 139 238 143 101
226 504 275 -349 -44 399 179 228 144 243 148 96
221 508 285 -364 -22 391 169 223 144 252 153 111
216 488 270 -364 -30 398 164 228 144 243 143 101
206 473 265 -351 -25 380 155 223 139 243 143 106
216 478 259 -339 -27 371 145 213 130 233 138 106
221 488 264 -346 -20 371 150 213 130 223 138 106
201 488 284 -354 -20 378 135 203 120 223 138 106
197 507 308 -343 -39 388 130 194 116 218 133 101
177 496 318 -350 -53 410 130 194 116 212 123 86
211 510 297 -336 -68 409 135 195 120 212 130 91
211 491 278 -360 -41 406 120 170 106 227 140 101
206 491 282 -349 -30 387 116 165 106 217 130 91
221 519 296 -347 -35 388 106 156 101 217 135 96
221 505 282 -369 -35 410 101 146 96 217 135 101
187 495 305 -362 -28 394 96 141 96 222 140 106
192 495 300 -340 -57 402 106 146 101 217 140 101
197 490 291 -342 -52 399 111 152 107 227 150 111
187 485 295 -342 -44 392 96 142 97 227 140 101
201 484 281 -335 -51 392 107 152 92 217 130 96
197 455 255 -342 -36 384 102 147 82 212 130 96
187 439 251 -325 -27 357 112 152 87 188 106 77
197 454 254 -313 -29 347 112 142 82 193 111 86
182 468 284 -325 -27 357 117 147 87 188 106 81
177 478 298 -325 -49 378 102 142 82 198 116 86
162 458 292 -327 -58 390 92 127 68 198 111 81
160 458 297 -309 -63 377 92 127 73 183 97 62
174 487 312 -307 -67 379 92 127 68 188 97 67
164 477 312 -329 -67 401 102 132 73 183 92 62
150 462 312 -319 -72 396 102 132 77 183 92 62
160 492 330 -304 -78 389 102 137 77 188 102 72
160 452 291 -324 -83 412 108 128 68 183 97 67
140 421 281 -304 -64 373 98 119 53 173 87 57
155 446 290 -280 -69 354 108 123 58 159 77 47
164 431 266 -299 -66 370 88 114 54 168 82 57
140 441 299 -296 -49 350 78 114 59 168 77 52
150 445 294 -289 -77 371 88 128 74 178 87 57
160 455 294 -296 -70 371 94 123 69 188 97 62
145 450 304 -306 -65 376 89 114 64 183 87 52
145 445 299 -295 -77 379 109 133 74 183 87 47
135 430 293 -293 -75 374 99 123 65 187 92 57
160 450 288 -280 -77 364 89 114 55 172 82 47
169 454 283 -302 -63 370 99 119 60 163 75 38
155 454 297 -310 -55 370 94 128 65 167 75 47
155 448 292 -302 -70 378 99 123 55 172 79 47
150 443 291 -300 -67 372 99 128 60 163 75 42
155 448 291 -295 -69 369 84 123 60 167 79 47
160 467 306 -300 -67 371 89 123 65 172 84 47
150 447 296 -312 -70 388 104 128 79 182 89 52
164 432 267 -298 -70 373 109 128 75 192 99 67
150 417 266 -298 -48 351 119 133 75 181 84 52
164 422 256 -283 -56 344 123 143 75 171 79 47
160 417 255 -292 -44 341 114 144 71 171 79 52
169 431 260 -287 -46 338 119 149 76 166 75 42
164 421 255 -299 -43 348 119 154 85 176 79 42
135 391 254 -292 -43 341 120 154 80 181 84 52
135 376 240 -262 -57 325 129 163 80 176 79 47
169 337 168 -255 -50 310 163 207 95 166 65 28
189 313 124 -253 2 253 188 256 120 166 56 13
184 331 148 -250 33 219 202 311 144 171 46 -1
184 385 199 -257 19 241 212 340 163 176 41 -15
223 439 215 -283 -6 295 212 369 193 176 32 -35
272 502 229 -330 4 329 237 433 271 205 46 -25
325 571 244 -386 22 367 246 496 339 279 115 23
360 615 253 -447 42 408 251 555 412 347 178 77
389 677 287 -486 54 435 276 672 529 420 242 140
467 770 301 -531 52 483 300 794 656 528 344 223
556 832 277 -617 84 537 330 935 827 640 446 321
678 935 257 -692 140 555 355 1067 974 791 588 438
771 1037 267 -804 211 597 296 1053 1028 928 705 550
824 1101 276 -902 252 653 228 984 1057 1019 817 668
868 1148 281 -961 274 689 150 872 1057 1117 954 824
873 1192 319 -1007 295 716 91 774 1038 1200 1081 976
878 1241 363 -1031 278 758 4 600 960 1249 1166 1083
829 1251 421 -1058 258 803 -107 346 818 1259 1220 1161
766 1222 454 -1039 205 837 -234 48 629 1210 1224 1205
736 1230 493 -992 156 840 -292 -234 400 1132 1200 1224
536 1313 775 -983 122 863 -356 -478 185 995 1107 1176
302 1371 1068 -924 -118 1046 -448 -717 -24 849 995 1098
117 1346 1229 -835 -381 1221 -463 -888 -156 692 873 1010
-19 1268 1288 -730 -554 1289 -424 -1015 -278 610 805 966
-39 1180 1220 -623 -652 1279 -409 -1141 -444 527 741 912
-24 1062 1087 -569 -628 1201 -429 -1283 -624 366 590 785
-48 950 999 -518 -555 1077 -483 -1361 -746 190 429 644
-9 857 867 -450 -522 976 -502 -1337 -790 53 287 517
14 740 723 -423 -436 863 -536 -1312 -824 -39 190 424
0 657 655 -376 -352 734 -585 -1273 -834 -117 107 341
9 594 582 -328 -325 659 -585 -1185 -809 -175 39 273
29 554 523 -300 -284 589 -566 -1093 -774 -214 -24 190
68 534 465 -290 -245 540 -527 -985 -726 -244 -77 117
92 504 410 -300 -195 500 -463 -849 -628 -253 -116 63
107 470 361 -297 -156 459 -360 -688 -516 -204 -96 58
126 460 331 -287 -124 417 -257 -507 -394 -136 -67 63
156 485 326 -292 -100 398 -160 -336 -272 -68 -38 58
161 493 331 -318 -83 408 -111 -239 -213 0 1 63
146 454 306 -326 -83 414 -77 -150 -150 19 1 48
175 454 276 -299 -78 382 -38 -86 -101 63 25 63
170 469 296 -313 -49 368 -13 -52 -86 87 40 68
131 435 301 -318 -61 384 1 -8 -52 82 20 43
126 434 306 -282 -82 369 15 20 -23 97 35 48
156 453 295 -279 -87 370 35 44 -8 122 49 58
146 447 300 -304 -67 375 59 79 15 125 49 48
131 428 294 -296 -74 375 74 99 30 145 54 53
141 423 279 -279 -78 363 80 109 35 150 54 48
161 433 269 -282 -66 353 75 114 36 150 54 39
141 417 273 -296 -52 353 70 114 41 145 51 39
146 407 259 -278 -64 348 80 143 65 140 51 39
122 417 293 -276 -54 335 80 143 70 164 66 48
133 398 264 -269 -82 357 89 148 65 169 66 48
128 398 268 -264 -63 332 115 148 60 160 56 39
138 402 263 -261 -68 334 125 158 71 150 46 29
148 397 248 -269 -60 333 134 167 76 154 46 35
148 406 257 -271 -48 324 144 182 90 159 51 35
148 410 262 -276 -53 333 129 177 85 163 56 40
124 425 301 -277 -56 338 110 163 71 159 56 35
128 420 290 -272 -87 365 105 163 76 154 46 30
138 410 270 -272 -80 357 110 164 81 159 56 35
128 399 270 -272 -64 342 120 178 95 168 61 44
153 414 261 -263 -69 337 110 183 95 178 71 49
163 424 261 -281 -52 340 105 173 85 178 71 49
133 419 285 -291 -46 344 105 178 95 173 66 40
133 404 269 -274 -73 353 115 183 100 173 72 49
153 408 254 -267 -66 338 105 178 91 183 77 54
153 423 268 -279 -49 333 110 178 91 173 62 40
133 422 288 -286 -56 347 125 188 101 168 62 40
138 402 263 -276 -75 357 115 183 91 178 77 54
143 397 253 -269 -60 335 120 188 96 168 62 40
153 397 243 -269 -53 327 140 188 96 168 62 40
143 392 248 -274 -43 322 140 193 96 168 62 40
148 401 253 -267 -50 322 135 198 101 163 57 35
167 421 253 -274 -50 328 130 198 101 163 57 40
148 411 261 -293 -40 338 140 207 111 163 62 40
158 406 246 -278 -55 337 140 198 101 172 67 54
158 401 241 -280 -43 327 135 193 96 162 52 40
148 386 236 -278 -40 322 130 198 101 158 52 35
148 395 246 -266 -42 313 135 203 106 162 52 40
163 399 235 -270 -47 322 140 203 101 172 64 44
167 409 240 -280 -34 320 140 204 101 167 59 40
163 399 235 -288 -33 326 135 204 106 167 59 40
158 379 220 -280 -33 319 122 199 102 172 64 44
177 398 220 -268 -29 302 122 208 112 172 59 44
167 418 249 -287 -19 311 122 208 117 182 74 54
172 423 248 -291 -38 335 122 208 112 182 74 54
163 413 248 -296 -36 337 122 213 117 177 64 49
163 408 243 -287 -40 332 122 214 112 182 69 54
158 412 253 -284 -37 327 132 219 123 172 59 44
158 422 261 -283 -45 334 132 219 118 182 69 54
172 416 242 -288 -50 344 132 214 113 177 69 54
167 411 242 -293 -32 331 132 219 118 172 59 44
173 401 227 -288 -35 328 137 219 118 177 64 54
154 401 247 -286 -25 316 152 229 123 172 64 54
144 386 241 -276 -45 326 162 239 137 177 69 54
183 410 225 -264 -47 315 152 234 128 192 85 64
193 415 220 -295 -19 320 142 234 128 187 75 59
173 405 230 -303 -12 319 147 239 137 182 70 54
178 410 230 -288 -27 319 142 239 137 197 85 64
183 415 229 -293 -23 321 147 239 137 192 80 64
178 404 224 -298 -21 324 142 239 138 192 80 64
178 419 239 -290 -21 316 147 250 143 192 80 69
168 413 244 -297 -28 330 152 254 148 197 85 64
173 413 239 -289 -35 330 152 259 153 197 85 69
178 432 252 -292 -30 328 152 259 148 201 89 74
183 426 242 -304 -34 344 147 259 148 200 85 64
203 422 217 -304 -27 336 138 254 143 196 85 69
193 422 227 -311 -5 321 138 264 153 196 80 64
178 417 237 -306 -15 326 143 269 163 205 89 74
178 417 236 -297 -27 328 148 274 163 210 94 83
193 422 226 -297 -27 328 153 284 168 215 99 83
203 445 241 -305 -15 326 143 284 168 220 101 83
203 455 250 -323 -17 345 138 284 172 215 101 83
212 459 246 -327 -22 354 143 293 182 215 101 83
217 478 259 -335 -14 354 138 293 182 230 111 93
227 488 258 -346 -19 371 133 298 182 229 116 103
217 464 244 -356 -14 375 129 298 182 229 116 103
212 467 253 -339 -10 355 119 298 188 229 116 98
217 487 268 -339 -18 362 134 313 198 234 121 103
232 492 257 -351 -23 379 144 323 208 239 126 108
237 497 257 -361 -10 376 139 323 208 248 135 113
232 516 282 -365 -8 379 134 328 208 248 131 113
242 531 286 -373 -23 401 134 343 222 253 131 118
251 530 277 -385 -19 409 130 338 218 263 145 132
256 534 276 -390 -9 405 126 348 228 258 145 127
247 529 281 -395 -7 407 121 348 233 273 155 137
261 524 260 -387 -14 407 126 358 238 273 156 137
247 524 275 -392 3 394 126 363 243 282 161 142
256 538 280 -385 -12 401 131 377 257 287 166 147
281 542 259 -396 -9 410 135 383 267 302 180 157
276 562 283 -411 13 403 135 393 277 307 190 166
290 582 288 -418 -2 425 131 393 277 317 200 181
310 572 260 -435 4 437 121 388 277 321 205 186
278 577 298 -440 26 417 106 383 272 321 205 181
292 576 282 -425 -8 438 106 388 282 321 205 186
297 571 273 -433 7 431 106 393 283 331 214 191
288 599 311 -433 15 424 106 398 288 335 219 197
302 619 316 -442 -10 457 101 398 288 340 224 202
322 623 301 -459 -5 469 106 398 293 340 224 202
302 619 315 -471 12 463 96 393 283 340 229 206
302 622 320 -459 -5 468 96 393 288 335 224 206
302 608 305 -461 -6 473 101 393 293 340 234 211
302 593 290 -453 1 458 112 398 297 345 241 221
292 588 295 -445 8 444 102 394 288 355 246 226
297 593 294 -438 1 444 112 399 297 345 236 216
302 603 299 -443 3 445 112 399 293 355 246 231
302 607 303 -450 3 452 112 399 293 350 246 226
307 596 288 -453 1 457 107 389 293 350 246 226
307 606 298 -450 11 444 107 384 288 355 251 236
302 601 297 -455 6 454 102 379 283 355 251 236
302 611 307 -450 4 450 97 375 278 350 251 236
288 590 302 -455 0 460 102 370 278 350 251 236
283 590 307 -438 -5 448 102 370 279 350 251 236
292 600 307 -436 -9 450 102 365 279 350 251 236
292 590 296 -445 -4 455 103 365 274 350 251 236
283 605 320 -440 1 444 103 365 274 350 246 231
297 600 300 -442 -17 464 98 355 269 350 251 236
297 575 275 -447 1 452 98 345 259 345 246 231
263 560 295 -435 13 427 103 340 265 340 242 221
263 569 304 -410 -13 429 103 340 260 340 247 231
292 564 270 -415 -18 439 109 340 260 340 242 226
278 564 284 -427 14 418 109 335 260 340 242 226
278 559 279 -420 -1 425 104 326 246 340 242 226
283 558 274 -418 2 420 109 331 251 330 232 211
263 558 293 -419 6 418 109 321 246 330 232 216
249 553 303 -409 -13 428 109 317 236 325 227 211
263 543 277 -400 -25 429 104 307 231 320 222 206
263 533 268 -402 -6 412 99 297 216 310 213 202
239 532 292 -397 0 402 119 302 226 300 203 192
229 532 301 -384 -24 414 119 297 216 310 213 197
253 536 281 -379 -34 418 109 283 203 300 203 187
234 512 276 -394 -11 410 114 278 198 285 183 172
249 512 262 -372 -18 395 119 279 203 276 178 163
258 522 262 -379 -4 388 124 274 198 280 183 172
240 506 266 -389 1 393 129 274 198 276 180 167
215 487 270 -372 -11 388 124 264 193 280 185 167
220 487 265 -350 -26 381 124 250 174 276 180 163
215 477 260 -352 -20 377 134 255 174 255 161 143
206 472 265 -345 -20 370 135 245 169 255 161 143
186 467 278 -338 -27 370 135 240 159 250 151 138
210 486 273 -325 -44 374 130 230 154 240 141 128
225 486 259 -347 -30 381 135 225 154 236 137 119
210 465 254 -354 -15 373 130 220 144 236 141 128
191 480 288 -337 -20 361 135 225 149 226 132 114
191 480 287 -334 -47 385 130 211 139 231 141 128
181 460 277 -334 -47 385 125 206 130 221 127 114
186 484 296 -319 -46 371 120 197 125 216 122 104
181 474 291 -334 -53 391 125 192 116 211 117 104
181 454 271 -327 -53 384 125 192 116 206 112 89
206 454 246 -317 -42 365 125 187 116 201 108 94
191 449 256 -329 -18 352 126 187 111 201 113 94
181 458 275 -318 -30 354 126 187 116 196 108 94
181 463 280 -318 -45 369 131 187 116 201 113 99
176 467 290 -321 -47 372 126 177 102 206 113 99
157 457 299 -321 -54 380 126 177 102 192 103 84
176 447 269 -305 -68 380 126 173 97 192 98 84
186 447 259 -310 -44 360 127 173 97 192 103 84
176 451 273 -315 -34 355 137 177 107 186 98 80
181 461 278 -313 -46 364 127 168 97 195 108 99
176 446 267 -320 -46 371 127 168 93 186 98 84
147 437 287 -310 -44 359 122 158 88 181 94 80
152 456 302 -291 -68 363 127 158 88 181 94 80
157 442 282 -303 -73 380 137 163 88 181 94 80
147 421 272 -298 -61 362 132 158 83 186 94 80
147 436 286 -283 -60 347 141 163 88 181 89 75
137 454 315 -291 -67 362 141 173 98 181 96 75
157 459 300 -295 -87 386 141 168 94 191 105 89
167 454 285 -308 -69 382 132 154 79 191 105 89
167 440 270 -310 -56 372 132 159 84 176 91 75
162 439 274 -302 -49 356 127 154 79 181 96 84
147 439 289 -299 -54 359 132 159 84 176 91 75
157 443 284 -292 -69 366 137 164 84 181 96 80
167 429 259 -299 -61 365 132 154 79 181 96 80
157 424 264 -297 -43 345 137 159 79 176 91 70
162 442 278 -290 -50 344 138 165 84 181 91 75
154 447 293 -302 -55 362 138 170 89 186 100 84
149 437 287 -299 -68 371 133 165 84 186 100 84
169 451 282 -291 -68 364 128 160 84 186 100 84
164 446 282 -308 -55 369 133 165 84 186 100 84
154 432 276 -303 -58 365 133 170 84 186 100 84
164 440 276 -291 -60 356 128 170 84 191 100 84
178 445 266 -301 -55 361 138 175 89 186 101 80
183 440 256 -310 -42 358 138 175 94 191 101 80
183 445 261 -310 -35 350 128 170 90 195 111 94
173 445 270 -312 -37 355 128 175 95 195 106 89
144 436 290 -307 -46 359 128 184 104 195 111 89
173 444 269 -288 -70 363 129 179 99 205 116 99
183 439 254 -307 -46 359 124 179 99 200 111 89
173 448 274 -310 -34 349 129 185 105 199 111 89
198 468 268 -310 -48 363 124 185 100 204 116 94
193 468 273 -332 -34 370 129 185 105 199 111 84
198 468 268 -329 -38 372 124 185 110 204 121 94
188 452 263 -332 -33 370 125 185 105 204 121 99
198 442 244 -319 -35 359 125 190 115 204 121 99
183 433 248 -319 -21 344 125 190 115 214 126 104
173 437 262 -306 -30 341 130 200 120 214 131 104
203 442 237 -304 -43 351 135 210 125 219 131 104
217 446 227 -321 -16 341 130 200 120 224 138 109
203 456 251 -331 -4 338 130 205 125 218 133 99
198 484 286 -328 -23 356 125 200 125 223 138 109
208 474 265 -340 -42 387 125 200 121 223 138 109
193 435 241 -340 -27 372 120 200 126 223 138 109
208 450 241 -313 -22 340 115 195 121 223 138 109
193 449 255 -328 -14 347 120 195 121 223 138 109
183 444 260 -320 -28 354 120 205 126 223 138 104
198 449 249 -312 -36 354 120 200 131 233 138 109
208 454 244 -322 -24 350 115 200 126 237 147 109
208 464 253 -330 -16 350 120 200 131 228 138 104
212 464 248 -334 -21 360 115 195 126 237 147 109
212 463 248 -336 -15 357 105 191 121 233 143 109
222 453 228 -336 -15 357 106 186 121 223 138 99
203 447 243 -336 -1 342 116 186 121 223 138 99
198 432 233 -324 -18 347 126 201 131 223 134 99
203 452 247 -314 -15 334 121 191 121 233 144 109
217 451 233 -326 -20 352 121 191 121 228 139 99
227 451 222 -333 -5 343 126 196 126 223 134 94
223 456 231 -338 4 338 111 187 121 228 144 104
194 436 241 -338 -3 345 111 187 116 223 139 99
184 436 250 -314 -22 340 106 178 117 223 134 99
199 451 250 -309 -31 345 116 182 117 217 134 100
184 445 259 -324 -24 352 121 182 117 222 134 100
204 440 235 -314 -35 354 121 182 117 222 134 95
209 439 230 -320 -13 339 117 173 107 217 129 90
199 434 235 -323 -8 336 117 178 113 212 119 81
209 444 235 -315 -16 336 112 168 108 212 129 90
218 464 243 -325 -11 340 107 163 103 212 129 95
204 448 242 -340 -11 355 107 168 108 202 119 85
194 433 238 -325 -17 347 98 158 99 207 129 90
179 433 252 -313 -20 337 103 158 99 202 121 85
194 428 233 -306 -34 344 113 163 103 202 121 81
199 443 241 -310 -17 332 103 154 94 207 126 85
194 443 246 -319 -20 344 113 159 99 197 116 76
179 437 256 -317 -24 347 113 159 99 207 126 85
179 447 266 -307 -37 348 108 149 89 207 126 90
184 436 251 -312 -41 358 108 154 94 192 111 76
174 436 260 -308 -32 346 113 154 95 202 121 85
199 436 235 -304 -40 349 108 144 85 197 121 85
179 435 254 -316 -16 337 113 149 90 188 106 71
184 445 259 -306 -36 346 113 149 90 197 116 81
194 430 235 -313 -35 353 108 144 80 197 116 81
184 421 234 -311 -18 334 108 149 85 188 102 66
194 440 243 -301 -22 329 108 149 85 192 111 81
194 440 243 -316 -22 344 113 149 85 192 116 81
165 424 258 -316 -22 343 113 144 85 192 116 81
174 429 253 -294 -44 343 103 140 75 197 122 85
199 428 228 -301 -36 343 108 140 75 188 112 76
199 433 232 -313 -12 330 109 144 80 188 112 76
179 428 246 -316 -14 334 104 135 75 192 117 76
174 433 256 -304 -31 339 100 135 70 178 103 66
179 437 256 -303 -38 345 100 135 75 177 103 66
179 442 260 -307 -36 348 109 140 80 182 107 76
179 437 255 -310 -38 353 109 141 75 187 117 81
179 437 255 -307 -36 348 104 131 70 182 112 81
165 427 260 -307 -36 348 100 126 66 182 107 71
155 418 260 -295 -45 344 104 136 71 172 98 61
165 431 264 -285 -50 340 109 136 71 182 107 71
180 441 259 -298 -47 349 104 136 76 182 103 71
180 440 258 -310 -37 352 109 136 76 182 107 66
176 440 263 -309 -36 351 100 131 66 182 107 76
157 440 282 -306 -41 353 101 132 67 177 104 66
142 449 307 -296 -61 363 111 142 76 176 104 67
142 440 297 -294 -80 380 120 147 81 186 110 72
152 444 292 -289 -75 370 120 142 81 191 119 81
137 434 296 -296 -68 370 120 132 71 191 114 77
127 424 295 -284 -78 366 120 137 76 181 105 62
161 433 271 -274 -83 361 106 122 57 186 110 67
171 457 285 -296 -53 354 101 122 52 167 90 52
152 438 285 -312 -56 373 106 132 67 167 90 47
166 447 279 -293 -64 364 111 132 71 176 105 67
161 437 274 -305 -55 365 115 137 71 176 100 62
137 417 279 -298 -55 358 111 132 71 181 100 57
127 417 289 -276 -68 350 106 132 67 176 100 62
127 446 318 -270 -78 355 126 142 71 171 95 57
157 437 278 -285 -93 384 121 132 62 181 100 62
157 422 263 -294 -59 359 102 122 57 171 90 52
132 431 297 -287 -51 344 102 132 67 171 90 47
161 440 277 -280 -81 366 102 132 67 186 101 62
152 439 287 -299 -55 361 112 127 63 181 96 62
161 430 267 -294 -65 366 122 137 72 176 91 52
157 439 281 -294 -50 351 113 127 63 181 101 62
152 438 286 -297 -60 362 113 132 68 171 91 52
152 448 296 -294 -65 365 117 138 68 176 96 52
147 453 306 -299 -70 374 122 143 68 181 101 62
127 434 305 -299 -77 381 113 138 69 176 96 57
171 458 284 -280 -87 371 117 138 64 176 96 57
147 458 308 -313 -55 372 122 143 69 171 91 57
132 433 299 -301 -79 385 117 143 73 171 96 62
152 428 274 -281 -81 367 113 133 69 186 106 72
166 436 268 -288 -59 353 113 124 59 176 96 62
157 456 298 -301 -48 355 122 139 73 171 86 47
152 446 293 -306 -68 380 113 139 69 181 96 57
176 441 264 -298 -68 371 113 134 64 180 91 57
152 455 303 -308 -41 354 108 129 59 175 88 52
142 474 331 -303 -73 381 103 134 69 175 98 62
152 455 301 -307 -92 404 113 144 78 190 108 72
157 455 296 -302 -72 380 117 144 74 190 108 67
152 445 291 -305 -67 377 133 149 79 190 103 62
147 450 301 -297 -67 369 118 144 65 190 103 62
158 459 300 -297 -74 377 118 144 70 175 88 47
177 464 285 -306 -69 382 133 158 79 180 98 52
182 487 304 -318 -52 377 138 168 84 185 98 52
197 487 290 -333 -59 398 148 178 99 189 108 62
177 492 314 -340 -45 390 157 184 104 204 117 77
158 481 323 -333 -67 405 157 194 118 204 117 72
187 476 288 -318 -80 405 153 189 109 218 122 81
187 476 288 -330 -49 384 162 194 109 208 113 72
187 467 278 -330 -49 384 167 208 123 208 113 67
182 462 278 -325 -43 374 177 218 133 218 122 81
197 476 277 -321 -45 371 188 228 138 223 123 81
216 519 301 -335 -38 379 193 228 138 228 128 86
231 539 306 -367 -40 413 168 218 133 233 138 101
211 518 306 -384 -35 425 154 223 138 233 143 101
182 509 326 -364 -45 414 149 218 134 238 148 101
201 499 296 -344 -69 419 158 223 139 238 143 101
226 504 275 -349 -44 399 179 228 144 243 148 96
221 508 285 -364 -22 391 169 223 144 252 153 111
216 488 270 -364 -30 398 164 228 144 243 143 101
206 473 265 -351 -25 380 155 223 139 243 143 106
216 478 259 -339 -27 371 145 213 130 233 138 106
221 488 264 -346 -20 371 150 213 130 223 138 106
201 488 284 -354 -20 378 135 203 120 223 138 106
197 507 308 -343 -39 388 130 194 116 218 133 101
177 496 318 -350 -53 410 130 194 116 212 123 86
211 510 297 -336 -68 409 135 195 120 212 130 91
211 491 278 -360 -41 406 120 170 106 227 140 101
206 491 282 -349 -30 387 116 165 106 217 130 91
221 519 296 -347 -35 388 106 156 101 217 135 96
221 505 282 -369 -35 410 101 146 96 217 135 101
187 495 305 -362 -28 394 96 141 96 222 140 106
192 495 300 -340 -57 402 106 146 101 217 140 101
197 490 291 -342 -52 399 111 152 107 227 150 111
187 485 295 -342 -44 392 96 142 97 227 140 101
201 484 281 -335 -51 392 107 152 92 217 130 96
197 455 255 -342 -36 384 102 147 82 212 130 96
187 439 251 -325 -27 357 112 152 87 188 106 77
197 454 254 -313 -29 347 112 142 82 193 111 86
182 468 284 -325 -27 357 117 147 87 188 106 81
177 478 298 -325 -49 378 102 142 82 198 116 86
162 458 292 -327 -58 390 92 127 68 198 111 81
160 458 297 -309 -63 377 92 127 73 183 97 62
174 487 312 -307 -67 379 92 127 68 188 97 67
164 477 312 -329 -67 401 102 132 73 183 92 62
150 462 312 -319 -72 396 102 132 77 183 92 62
160 492 330 -304 -78 389 102 137 77 188 102 72
160 452 291 -324 -83 412 108 128 68 183 97 67
140 421 281 -304 -64 373 98 119 53 173 87 57
155 446 290 -280 -69 354 108 123 58 159 77 47
164 431 266 -299 -66 370 88 114 54 168 82 57
140 441 299 -296 -49 350 78 114 59 168 77 52
150 445 294 -289 -77 371 88 128 74 178 87 57
160 455 294 -296 -70 371 94 123 69 188 97 62
145 450 304 -306 -65 376 89 114 64 183 87 52
145 445 299 -295 -77 379 109 133 74 183 87 47
135 430 293 -293 -75 374 99 123 65 187 92 57
160 450 288 -280 -77 364 89 114 55 172 82 47
169 454 283 -302 -63 370 99 119 60 163 75 38
155 454 297 -310 -55 370 94 128 65 167 75 47
155 448 292 -302 -70 378 99 123 55 172 79 47
150 443 291 -300 -67 372 99 128 60 163 75 42
155 448 291 -295 -69 369 84 123 60 167 79 47
160 467 306 -300 -67 371 89 123 65 172 84 47
150 447 296 -312 -70 388 104 128 79 182 89 52
164 432 267 -298 -70 373 109 128 75 192 99 67
150 417 266 -298 -48 351 119 133 75 181 84 52
164 422 256 -283 -56 344 123 143 75 171 79 47
160 417 255 -292 -44 341 114 144 71 171 79 52
169 431 260 -287 -46 338 119 149 76 166 75 42
164 421 255 -299 -43 348 119 154 85 176 79 42
135 391 254 -292 -43 341 120 154 80 181 84 52
135 376 240 -262 -57 325 129 163 80 176 79 47
169 337 168 -255 -50 310 163 207 95 166 65 28
189 313 124 -253 2 253 188 256 120 166 56 13
184 331 148 -250 33 219 202 311 144 171 46 -1
184 385 199 -257 19 241 212 340 163 176 41 -15
223 439 215 -283 -6 295 212 369 193 176 32 -35
272 502 229 -330 4 329 237 433 271 205 46 -25
325 571 244 -386 22 367 246 496 339 279 115 23
360 615 253 -447 42 408 251 555 412 347 178 77
389 677 287 -486 54 435 276 672 529 420 242 140
467 770 301 -531 52 483 300 794 656 528 344 223
556 832 277 -617 84 537 330 935 827 640 446 321
678 935 257 -692 140 555 355 1067 974 791 588 438
771 1037 267 -804 211 597 296 1053 1028 928 705 550
824 1101 276 -902 252 653 228 984 1057 1019 817 668
868 1148 281 -961 274 689 150 872 1057 1117 954 824
873 1192 319 -1007 295 716 91 774 1038 1200 1081 976
878 1241 363 -1031 278 758 4 600 960 1249 1166 1083
829 1251 421 -1058 258 803 -107 346 818 1259 1220 1161
766 1222 454 -1039 205 837 -234 48 629 1210 1224 1205
736 1230 493 -992 156 840 -292 -234 400 1132 1200 1224
536 1313 775 -983 122 863 -356 -478 185 995 1107 1176
302 1371 1068 -924 -118 1046 -448 -717 -24 849 995 1098
117 1346 1229 -835 -381 1221 -463 -888 -156 692 873 1010
-19 1268 1288 -730 -554 1289 -424 -1015 -278 610 805 966
-39 1180 1220 -623 -652 1279 -409 -1141 -444 527 741 912
-24 1062 1087 -569 -628 1201 -429 -1283 -624 366 590 785
-48 950 999 -518 -555 1077 -483 -1361 -746 190 429 644
-9 857 867 -450 -522 976 -502 -1337 -790 53 287 517
14 740 723 -423 -436 863 -536 -1312 -824 -39 190 424
0 657 655 -376 -352 734 -585 -1273 -834 -117 107 341
9 594 582 -328 -325 659 -585 -1185 -809 -175 39 273
29 554 523 -300 -284 589 -566 -1093 -774 -214 -24 190
68 534 465 -290 -245 540 -527 -985 -726 -244 -77 117
92 504 410 -300 -195 500 -463 -849 -628 -253 -116 63
107 470 361 -297 -156 459 -360 -688 -516 -204 -96 58
126 460 331 -287 -124 417 -257 -507 -394 -136 -67 63
156 485 326 -292 -100 398 -160 -336 -272 -68 -38 58
161 493 331 -318 -83 408 -111 -239 -213 0 1 63
146 454 306 -326 -83 414 -77 -150 -150 19 1 48
175 454 276 -299 -78 382 -38 -86 -101 63 25 63
170 469 296 -313 -49 368 -13 -52 -86 87 40 68
131 435 301 -318 -61 384 1 -8 -52 82 20 43
126 434 306 -282 -82 369 15 20 -23 97 35 48
156 453 295 -279 -87 370 35 44 -8 122 49 58
146 447 300 -304 -67 375 59 79 15 125 49 48
131 428 294 -296 -74 375 74 99 30 145 54 53
141 423 279 -279 -78 363 80 109 35 150 54 48
161 433 269 -282 -66 353 75 114 36 150 54 39
141 417 273 -296 -52 353 70 114 41 145 51 39
146 407 259 -278 -64 348 80 143 65 140 51 39
122 417 293 -276 -54 335 80 143 70 164 66 48
133 398 264 -269 -82 357 89 148 65 169 66 48
128 398 268 -264 -63 332 115 148 60 160 56 39
138 402 263 -261 -68 334 125 158 71 150 46 29
148 397 248 -269 -60 333 134 167 76 154 46 35
148 406 257 -271 -48 324 144 182 90 159 51 35
148 410 262 -276 -53 333 129 177 85 163 56 40
124 425 301 -277 -56 338 110 163 71 159 56 35
128 420 290 -272 -87 365 105 163 76 154 46 30
138 410 270 -272 -80 357 110 164 81 159 56 35
128 399 270 -272 -64 342 120 178 95 168 61 44
153 414 261 -263 -69 337 110 183 95 178 71 49
163 424 261 -281 -52 340 105 173 85 178 71 49
133 419 285 -291 -46 344 105 178 95 173 66 40
133 404 269 -274 -73 353 115 183 100 173 72 49
153 408 254 -267 -66 338 105 178 91 183 77 54
153 423 268 -279 -49 333 110 178 91 173 62 40
133 422 288 -286 -56 347 125 188 101 168 62 40
138 402 263 -276 -75 357 115 183 91 178 77 54
143 397 253 -269 -60 335 120 188 96 168 62 40
153 397 243 -269 -53 327 140 188 96 168 62 40
143 392 248 -274 -43 322 140 193 96 168 62 40
148 401 253 -267 -50 322 135 198 101 163 57 35
167 421 253 -274 -50 328 130 198 101 163 57 40
148 411 261 -293 -40 338 140 207 111 163 62 40
158 406 246 -278 -55 337 140 198 101 172 67 54
158 401 241 -280 -43 327 135 193 96 162 52 40
148 386 236 -278 -40 322 130 198 101 158 52 35
148 395 246 -266 -42 313 135 203 106 162 52 40
163 399 235 -270 -47 322 140 203 101 172 64 44
167 409 240 -280 -34 320 140 204 101 167 59 40
163 399 235 -288 -33 326 135 204 106 167 59 40
158 379 220 -280 -33 319 122 199 102 172 64 44
177 398 220 -268 -29 302 122 208 112 172 59 44
167 418 249 -287 -19 311 122 208 117 182 74 54
172 423 248 -291 -38 335 122 208 112 182 74 54
163 413 248 -296 -36 337 122 213 117 177 64 49
163 408 243 -287 -40 332 122 214 112 182 69 54
158 412 253 -284 -37 327 132 219 123 172 59 44
158 422 261 -283 -45 334 132 219 118 182 69 54
172 416 242 -288 -50 344 132 214 113 177 69 54
167 411 242 -293 -32 331 132 219 118 172 59 44
173 401 227 -288 -35 328 137 219 118 177 64 54
154 401 247 -286 -25 316 152 229 123 172 64 54
144 386 241 -276 -45 326 162 239 137 177 69 54
183 410 225 -264 -47 315 152 234 128 192 85 64
193 415 220 -295 -19 320 142 234 128 187 75 59
173 405 230 -303 -12 319 147 239 137 182 70 54
178 410 230 -288 -27 319 142 239 137 197 85 64
183 415 229 -293 -23 321 147 239 137 192 80 64
178 404 224 -298 -21 324 142 239 138 192 80 64
178 419 239 -290 -21 316 147 250 143 192 80 69
168 413 244 -297 -28 330 152 254 148 197 85 64
173 413 239 -289 -35 330 152 259 153 197 85 69
178 432 252 -292 -30 328 152 259 148 201 89 74
183 426 242 -304 -34 344 147 259 148 200 85 64
203 422 217 -304 -27 336 138 254 143 196 85 69
193 422 227 -311 -5 321 138 264 153 196 80 64
178 417 237 -306 -15 326 143 269 163 205 89 74
178 417 236 -297 -27 328 148 274 163 210 94 83
193 422 226 -297 -27 328 153 284 168 215 99 83
203 445 241 -305 -15 326 143 284 168 220 101 83
203 455 250 -323 -17 345 138 284 172 215 101 83
212 459 246 -327 -22 354 143 293 182 215 101 83
217 478 259 -335 -14 354 138 293 182 230 111 93
227 488 258 -346 -19 371 133 298 182 229 116 103
217 464 244 -356 -14 375 129 298 182 229 116 103
212 467 253 -339 -10 355 119 298 188 229 116 98
217 487 268 -339 -18 362 134 313 198 234 121 103
232 492 257 -351 -23 379 144 323 208 239 126 108
237 497 257 -361 -10 376 139 323 208 248 135 113
232 516 282 -365 -8 379 134 328 208 248 131 113
242 531 286 -373 -23 401 134 343 222 253 131 118
251 530 277 -385 -19 409 130 338 218 263 145 132
256 534 276 -390 -9 405 126 348 228 258 145 127
247 529 281 -395 -7 407 121 348 233 273 155 137
261 524 260 -387 -14 407 126 358 238 273 156 137
247 524 275 -392 3 394 126 363 243 282 161 142
256 538 280 -385 -12 401 131 377 257 287 166 147
281 542 259 -396 -9 410 135 383 267 302 180 157
276 562 283 -411 13 403 135 393 277 307 190 166
290 582 288 -418 -2 425 131 393 277 317 200 181
310 572 260 -435 4 437 121 388 277 321 205 186
278 577 298 -440 26 417 106 383 272 321 205 181
292 576 282 -425 -8 438 106 388 282 321 205 186
297 571 273 -433 7 431 106 393 283 331 214 191
288 599 311 -433 15 424 106 398 288 335 219 197
302 619 316 -442 -10 457 101 398 288 340 224 202
322 623 301 -459 -5 469 106 398 293 340 224 202
302 619 315 -471 12 463 96 393 283 340 229 206
302 622 320 -459 -5 468 96 393 288 335 224 206
302 608 305 -461 -6 473 101 393 293 340 234 211
302 593 290 -453 1 458 112 398 297 345 241 221
292 588 295 -445 8 444 102 394 288 355 246 226
297 593 294 -438 1 444 112 399 297 345 236 216
302 603 299 -443 3 445 112 399 293 355 246 231
302 607 303 -450 3 452 112 399 293 350 246 226
307 596 288 -453 1 457 107 389 293 350 246 226
307 606 298 -450 11 444 107 384 288 355 251 236
302 601 297 -455 6 454 102 379 283 355 251 236
302 611 307 -450 4 450 97 375 278 350 251 236
288 590 302 -455 0 460 102 370 278 350 251 236
283 590 307 -438 -5 448 102 370 279 350 251 236
292 600 307 -436 -9 450 102 365 279 350 251 236
292 590 296 -445 -4 455 103 365 274 350 251 236
283 605 320 -440 1 444 103 365 274 350 246 231
297 600 300 -442 -17 464 98 355 269 350 251 236
297 575 275 -447 1 452 98 345 259 345 246 231
263 560 295 -435 13 427 103 340 265 340 242 221
263 569 304 -410 -13 429 103 340 260 340 247 231
292 564 270 -415 -18 439 109 340 260 340 242 226
278 564 284 -427 14 418 109 335 260 340 242 226
278 559 279 -420 -1 425 104 326 246 340 242 226
283 558 274 -418 2 420 109 331 251 330 232 211
263 558 293 -419 6 418 109 321 246 330 232 216
249 553 303 -409 -13 428 109 317 236 325 227 211
263 543 277 -400 -25 429 104 307 231 320 222 206
263 533 268 -402 -6 412 99 297 216 310 213 202
239 532 292 -397 0 402 119 302 226 300 203 192
229 532 301 -384 -24 414 119 297 216 310 213 197
253 536 281 -379 -34 418 109 283 203 300 203 187
234 512 276 -394 -11 410 114 278 198 285 183 172
249 512 262 -372 -18 395 119 279 203 276 178 163
258 522 262 -379 -4 388 124 274 198 280 183 172
240 506 266 -389 1 393 129 274 198 276 180 167
215 487 270 -372 -11 388 124 264 193 280 185 167
220 487 265 -350 -26 381 124 250 174 276 180 163
215 477 260 -352 -20 377 134 255 174 255 161 143
206 472 265 -345 -20 370 135 245 169 255 161 143
186 467 278 -338 -27 370 135 240 159 250 151 138
210 486 273 -325 -44 374 130 230 154 240 141 128
225 486 259 -347 -30 381 135 225 154 236 137 119
210 465 254 -354 -15 373 130 220 144 236 141 128
191 480 288 -337 -20 361 135 225 149 226 132 114
191 480 287 -334 -47 385 130 211 139 231 141 128
181 460 277 -334 -47 385 125 206 130 221 127 114
186 484 296 -319 -46 371 120 197 125 216 122 104
181 474 291 -334 -53 391 125 192 116 211 117 104
181 454 271 -327 -53 384 125 192 116 206 112 89
206 454 246 -317 -42 365 125 187 116 201 108 94
191 449 256 -329 -18 352 126 187 111 201 113 94
181 458 275 -318 -30 354 126 187 116 196 108 94
181 463 280 -318 -45 369 131 187 116 201 113 99
176 467 290 -321 -47 372 126 177 102 206 113 99
157 457 299 -321 -54 380 126 177 102 192 103 84
176 447 269 -305 -68 380 126 173 97 192 98 84
186 447 259 -310 -44 360 127 173 97 192 103 84
176 451 273 -315 -34 355 137 177 107 186 98 80
181 461 278 -313 -46 364 127 168 97 195 108 99
176 446 267 -320 -46 371 127 168 93 186 98 84
147 437 287 -310 -44 359 122 158 88 181 94 80
152 456 302 -291 -68 363 127 158 88 181 94 80
157 442 282 -303 -73 380 137 163 88 181 94 80
147 421 272 -298 -61 362 132 158 83 186 94 80
147 436 286 -283 -60 347 141 163 88 181 89 75
137 454 315 -291 -67 362 141 173 98 181 96 75
157 459 300 -295 -87 386 141 168 94 191 105 89
167 454 285 -308 -69 382 132 154 79 191 105 89
167 440 270 -310 -56 372 132 159 84 176 91 75
162 439 274 -302 -49 356 127 154 79 181 96 84
147 439 289 -299 -54 359 132 159 84 176 91 75
157 443 284 -292 -69 366 137 164 84 181 96 80
167 429 259 -299 -61 365 132 154 79 181 96 80
157 424 264 -297 -43 345 137 159 79 176 91 70
162 442 278 -290 -50 344 138 165 84 181 91 75
154 447 293 -302 -55 362 138 170 89 186 100 84
149 437 287 -299 -68 371 133 165 84 186 100 84
169 451 282 -291 -68 364 128 160 84 186 100 84
164 446 282 -308 -55 369 133 165 84 186 100 84
154 432 276 -303 -58 365 133 170 84 186 100 84
164 440 276 -291 -60 356 128 170 84 191 100 84
178 445 266 -301 -55 361 138 175 89 186 101 80
183 440 256 -310 -42 358 138 175 94 191 101 80
183 445 261 -310 -35 350 128 170 90 195 111 94
173 445 270 -312 -37 355 128 175 95 195 106 89
144 436 290 -307 -46 359 128 184 104 195 111 89
173 444 269 -288 -70 363 129 179 99 205 116 99
183 439 254 -307 -46 359 124 179 99 200 111 89
173 448 274 -310 -34 349 129 185 105 199 111 89
198 468 268 -310 -48 363 124 185 100 204 116 94
193 468 273 -332 -34 370 129 185 105 199 111 84
198 468 268 -329 -38 372 124 185 110 204 121 94
188 452 263 -332 -33 370 125 185 105 204 121 99
198 442 244 -319 -35 359 125 190 115 204 121 99
183 433 248 -319 -21 344 125 190 115 214 126 104
173 437 262 -306 -30 341 130 200 120 214 131 104
203 442 237 -304 -43 351 135 210 125 219 131 104
217 446 227 -321 -16 341 130 200 120 224 138 109
203 456 251 -331 -4 338 130 205 125 218 133 99
198 484 286 -328 -23 356 125 200 125 223 138 109
208 474 265 -340 -42 387 125 200 121 223 138 109
193 435 241 -340 -27 372 120 200 126 223 138 109
208 450 241 -313 -22 340 115 195 121 223 138 109
193 449 255 -328 -14 347 120 195 121 223 138 109
183 444 260 -320 -28 354 120 205 126 223 138 104
198 449 249 -312 -36 354 120 200 131 233 138 109
208 454 244 -322 -24 350 115 200 126 237 147 109
208 464 253 -330 -16 350 120 200 131 228 138 104
212 464 248 -334 -21 360 115 195 126 237 147 109
212 463 248 -336 -15 357 105 191 121 233 143 109
222 453 228 -336 -15 357 106 186 121 223 138 99
203 447 243 -336 -1 342 116 186 121 223 138 99
198 432 233 -324 -18 347 126 201 131 223 134 99
203 452 247 -314 -15 334 121 191 121 233 144 109
217 451 233 -326 -20 352 121 191 121 228 139 99
227 451 222 -333 -5 343 126 196 126 223 134 94
223 456 231 -338 4 338 111 187 121 228 144 104
194 436 241 -338 -3 345 111 187 116 223 139 99
184 436 250 -314 -22 340 106 178 117 223 134 99
199 451 250 -309 -31 345 116 182 117 217 134 100
184 445 259 -324 -24 352 121 182 117 222 134 100
204 440 235 -314 -35 354 121 182 117 222 134 95
209 439 230 -320 -13 339 117 173 107 217 129 90
199 434 235 -323 -8 336 117 178 113 212 119 81
209 444 235 -315 -16 336 112 168 108 212 129 90
218 464 243 -325 -11 340 107 163 103 212 129 95
204 448 242 -340 -11 355 107 168 108 202 119 85
194 433 238 -325 -17 347 98 158 99 207 129 90
179 433 252 -313 -20 337 103 158 99 202 121 85
194 428 233 -306 -34 344 113 163 103 202 121 81
199 443 241 -310 -17 332 103 154 94 207 126 85
194 443 246 -319 -20 344 113 159 99 197 116 76
179 437 256 -317 -24 347 113 159 99 207 126 85
179 447 266 -307 -37 348 108 149 89 207 126 90
184 436 251 -312 -41 358 108 154 94 192 111 76
174 436 260 -308 -32 346 113 154 95 202 121 85
199 436 235 -304 -40 349 108 144 85 197 121 85
179 435 254 -316 -16 337 113 149 90 188 106 71
184 445 259 -306 -36 346 113 149 90 197 116 81
194 430 235 -313 -35 353 108 144 80 197 116 81
184 421 234 -311 -18 334 108 149 85 188 102 66
194 440 243 -301 -22 329 108 149 85 192 111 81
194 440 243 -316 -22 344 113 149 85 192 116 81
165 424 258 -316 -22 343 113 144 85 192 116 81
174 429 253 -294 -44 343 103 140 75 197 122 85
199 428 228 -301 -36 343 108 140 75 188 112 76
199 433 232 -313 -12 330 109 144 80 188 112 76
179 428 246 -316 -14 334 104 135 75 192 117 76
174 433 256 -304 -31 339 100 135 70 178 103 66
179 437 256 -303 -38 345 100 135 75 177 103 66
179 442 260 -307 -36 348 109 140 80 182 107 76
179 437 255 -310 -38 353 109 141 75 187 117 81
179 437 255 -307 -36 348 104 131 70 182 112 81
165 427 260 -307 -36 348 100 126 66 182 107 71
155 418 260 -295 -45 344 104 136 71 172 98 61
165 431 264 -285 -50 340 109 136 71 182 107 71
180 441 259 -298 -47 349 104 136 76 182 103 71
180 440 258 -310 -37 352 109 136 76 182 107 66
176 440 263 -309 -36 351 100 131 66 182 107 76
157 440 282 -306 -41 353 101 132 67 177 104 66
142 449 307 -296 -61 363 111 142 76 176 104 67
142 440 297 -294 -80 380 120 147 81 186 110 72
152 444 292 -289 -75 370 120 142 81 191 119 81
137 434 296 -296 -68 370 120 132 71 191 114 77
127 424 295 -284 -78 366 120 137 76 181 105 62
161 433 271 -274 -83 361 106 122 57 186 110 67
171 457 285 -296 -53 354 101 122 52 167 90 52
152 438 285 -312 -56 373 106 132 67 167 90 47
166 447 279 -293 -64 364 111 132 71 176 105 67
161 437 274 -305 -55 365 115 137 71 176 100 62
137 417 279 -298 -55 358 111 132 71 181 100 57
127 417 289 -276 -68 350 106 132 67 176 100 62
127 446 318 -270 -78 355 126 142 71 171 95 57
157 437 278 -285 -93 384 121 132 62 181 100 62
157 422 263 -294 -59 359 102 122 57 171 90 52
132 431 297 -287 -51 344 102 132 67 171 90 47
161 440 277 -280 -81 366 102 132 67 186 101 62
152 439 287 -299 -55 361 112 127 63 181 96 62
161 430 267 -294 -65 366 122 137 72 176 91 52
157 439 281 -294 -50 351 113 127 63 181 101 62
152 438 286 -297 -60 362 113 132 68 171 91 52
152 448 296 -294 -65 365 117 138 68 176 96 52
147 453 306 -299 -70 374 122 143 68 181 101 62
127 434 305 -299 -77 381 113 138 69 176 96 57
171 458 284 -280 -87 371 117 138 64 176 96 57
147 458 308 -313 -55 372 122 143 69 171 91 57
132 433 299 -301 -79 385 117 143 73 171 96 62
152 428 274 -281 -81 367 113 133 69 186 106 72
166 436 268 -288 -59 353 113 124 59 176 96 62
157 456 298 -301 -48 355 122 139 73 171 86 47
152 446 293 -306 -68 380 113 139 69 181 96 57
176 441 264 -298 -68 371 113 134 64 180 91 57
152 455 303 -308 -41 354 108 129 59 175 88 52
142 474 331 -303 -73 381 103 134 69 175 98 62
152 455 301 -307 -92 404 113 144 78 190 108 72
157 455 296 -302 -72 380 117 144 74 190 108 67
152 445 291 -305 -67 377 133 149 79 190 103 62
147 450 301 -297 -67 369 118 144 65 190 103 62
158 459 300 -297 -74 377 118 144 70 175 88 47
177 464 285 -306 -69 382 133 158 79 180 98 52
182 487 304 -318 -52 377 138 168 84 185 98 52
197 487 290 -333 -59 398 148 178 99 189 108 62
177 492 314 -340 -45 390 157 184 104 204 117 77
158 481 323 -333 -67 405 157 194 118 204 117 72
187 476 288 -318 -80 405 153 189 109 218 122 81
187 476 288 -330 -49 384 162 194 109 208 113 72
187 467 278 -330 -49 384 167 208 123 208 113 67
182 462 278 -325 -43 374 177 218 133 218 122 81
197 476 277 -321 -45 371 188 228 138 223 123 81
216 519 301 -335 -38 379 193 228 138 228 128 86
231 539 306 -367 -40 413 168 218 133 233 138 101
211 518 306 -384 -35 425 154 223 138 233 143 101
182 509 326 -364 -45 414 149 218 134 238 148 101
201 499 296 -344 -69 419 158 223 139 238 143 101
226 504 275 -349 -44 399 179 228 144 243 148 96
221 508 285 -364 -22 391 169 223 144 252 153 111
216 488 270 -364 -30 398 164 228 144 243 143 101
206 473 265 -351 -25 380 155 223 139 243 143 106
216 478 259 -339 -27 371 145 213 130 233 138 106
221 488 264 -346 -20 371 150 213 130 223 138 106
201 488 284 -354 -20 378 135 203 120 223 138 106
197 507 308 -343 -39 388 130 194 116 218 133 101
177 496 318 -350 -53 410 130 194 116 212 123 86
211 510 297 -336 -68 409 135 195 120 212 130 91
211 491 278 -360 -41 406 120 170 106 227 140 101
206 491 282 -349 -30 387 116 165 106 217 130 91
221 519 296 -347 -35 388 106 156 101 217 135 96
221 505 282 -369 -35 410 101 146 96 217 135 101
187 495 305 -362 -28 394 96 141 96 222 140 106
192 495 300 -340 -57 402 106 146 101 217 140 101
197 490 291 -342 -52 399 111 152 107 227 150 111
187 485 295 -342 -44 392 96 142 97 227 140 101
201 484 281 -335 -51 392 107 152 92 217 130 96
197 455 255 -342 -36 384 102 147 82 212 130 96
187 439 251 -325 -27 357 112 152 87 188 106 77
197 454 254 -313 -29 347 112 142 82 193 111 86
182 468 284 -325 -27 357 117 147 87 188 106 81
177 478 298 -325 -49 378 102 142 82 198 116 86
162 458 292 -327 -58 390 92 127 68 198 111 81
160 458 297 -309 -63 377 92 127 73 183 97 62
174 487 312 -307 -67 379 92 127 68 188 97 67
164 477 312 -329 -67 401 102 132 73 183 92 62
150 462 312 -319 -72 396 102 132 77 183 92 62
160 492 330 -304 -78 389 102 137 77 188 102 72
160 452 291 -324 -83 412 108 128 68 183 97 67
140 421 281 -304 -64 373 98 119 53 173 87 57
155 446 290 -280 -69 354 108 123 58 159 77 47
164 431 266 -299 -66 370 88 114 54 168 82 57
140 441 299 -296 -49 350 78 114 59 168 77 52
150 445 294 -289 -77 371 88 128 74 178 87 57
160 455 294 -296 -70 371 94 123 69 188 97 62
145 450 304 -306 -65 376 89 114 64 183 87 52
145 445 299 -295 -77 379 109 133 74 183 87 47
135 430 293 -293 -75 374 99 123 65 187 92 57
160 450 288 -280 -77 364 89 114 55 172 82 47
169 454 283 -302 -63 370 99 119 60 163 75 38
155 454 297 -310 -55 370 94 128 65 167 75 47
155 448 292 -302 -70 378 99 123 55 172 79 47
150 443 291 -300 -67 372 99 128 60 163 75 42
155 448 291 -295 -69 369 84 123 60 167 79 47
160 467 306 -300 -67 371 89 123 65 172 84 47
150 447 296 -312 -70 388 104 128 79 182 89 52
164 432 267 -298 -70 373 109 128 75 192 99 67
150 417 266 -298 -48 351 119 133 75 181 84 52
164 422 256 -283 -56 344 123 143 75 171 79 47
160 417 255 -292 -44 341 114 144 71 171 79 52
169 431 260 -287 -46 338 119 149 76 166 75 42
164 421 255 -299 -43 348 119 154 85 176 79 42
135 391 254 -292 -43 341 120 154 80 181 84 52
135 376 240 -262 -57 325 129 163 80 176 79 47
169 337 168 -255 -50 310 163 207 95 166 65 28
189 313 124 -253 2 253 188 256 120 166 56 13
184 331 148 -250 33 219 202 311 144 171 46 -1
184 385 199 -257 19 241 212 340 163 176 41 -15
223 439 215 -283 -6 295 212 369 193 176 32 -35
272 502 229 -330 4 329 237 433 271 205 46 -25
325 571 244 -386 22 367 246 496 339 279 115 23
360 615 253 -447 42 408 251 555 412 347 178 77
389 677 287 -486 54 435 276 672 529 420 242 140
467 770 301 -531 52 483 300 794 656 528 344 223
556 832 277 -617 84 537 330 935 827 640 446 321
678 935 257 -692 140 555 355 1067 974 791 588 438
771 1037 267 -804 211 597 296 1053 1028 928 705 550
824 1101 276 -902 252 653 228 984 1057 1019 817 668
868 1148 281 -961 274 689 150 872 1057 1117 954 824
873 1192 319 -1007 295 716 91 774 1038 1200 1081 976
878 1241 363 -1031 278 758 4 600 960 1249 1166 1083
829 1251 421 -1058 258 803 -107 346 818 1259 1220 1161
766 1222 454 -1039 205 837 -234 48 629 1210 1224 1205
736 1230 493 -992 156 840 -292 -234 400 1132 1200 1224
536 1313 775 -983 122 863 -356 -478 185 995 1107 1176
302 1371 1068 -924 -118 1046 -448 -717 -24 849 995 1098
117 1346 1229 -835 -381 1221 -463 -888 -156 692 873 1010
-19 1268 1288 -730 -554 1289 -424 -1015 -278 610 805 966
-39 1180 1220 -623 -652 1279 -409 -1141 -444 527 741 912
-24 1062 1087 -569 -628 1201 -429 -1283 -624 366 590 785
-48 950 999 -518 -555 1077 -483 -1361 -746 190 429 644
-9 857 867 -450 -522 976 -502 -1337 -790 53 287 517
14 740 723 -423 -436 863 -536 -1312 -824 -39 190 424
0 657 655 -376 -352 734 -585 -1273 -834 -117 107 341
9 594 582 -328 -325 659 -585 -1185 -809 -175 39 273
29 554 523 -300 -284 589 -566 -1093 -774 -214 -24 190
68 534 465 -290 -245 540 -527 -985 -726 -244 -77 117
92 504 410 -300 -195 500 -463 -849 -628 -253 -116 63
107 470 361 -297 -156 459 -360 -688 -516 -204 -96 58
126 460 331 -287 -124 417 -257 -507 -394 -136 -67 63
156 485 326 -292 -100 398 -160 -336 -272 -68 -38 58
161 493 331 -318 -83 408 -111 -239 -213 0 1 63
146 454 306 -326 -83 414 -77 -150 -150 19 1 48
175 454 276 -299 -78 382 -38 -86 -101 63 25 63
170 469 296 -313 -49 368 -13 -52 -86 87 40 68
131 435 301 -318 -61 384 1 -8 -52 82 20 43
126 434 306 -282 -82 369 15 20 -23 97 35 48
156 453 295 -279 -87 370 35 44 -8 122 49 58
146 447 300 -304 -67 375 59 79 15 125 49 48
131 428 294 -296 -74 375 74 99 30 145 54 53
141 423 279 -279 -78 363 80 109 35 150 54 48
161 433 269 -282 -66 353 75 114 36 150 54 39
141 417 273 -296 -52 353 70 114 41 145 51 39
146 407 259 -278 -64 348 80 143 65 140 51 39
122 417 293 -276 -54 335 80 143 70 164 66 48
133 398 264 -269 -82 357 89 148 65 169 66 48
128 398 268 -264 -63 332 115 148 60 160 56 39
138 402 263 -261 -68 334 125 158 71 150 46 29
148 397 248 -269 -60 333 134 167 76 154 46 35
148 406 257 -271 -48 324 144 182 90 159 51 35
148 410 262 -276 -53 333 129 177 85 163 56 40
124 425 301 -277 -56 338 110 163 71 159 56 35
128 420 290 -272 -87 365 105 163 76 154 46 30
138 410 270 -272 -80 357 110 164 81 159 56 35
128 399 270 -272 -64 342 120 178 95 168 61 44
153 414 261 -263 -69 337 110 183 95 178 71 49
163 424 261 -281 -52 340 105 173 85 178 71 49
133 419 285 -291 -46 344 105 178 95 173 66 40
133 404 269 -274 -73 353 115 183 100 173 72 49
153 408 254 -267 -66 338 105 178 91 183 77 54
153 423 268 -279 -49 333 110 178 91 173 62 40
133 422 288 -286 -56 347 125 188 101 168 62 40
138 402 263 -276 -75 357 115 183 91 178 77 54
143 397 253 -269 -60 335 120 188 96 168 62 40
153 397 243 -269 -53 327 140 188 96 168 62 40
143 392 248 -274 -43 322 140 193 96 168 62 40
148 401 253 -267 -50 322 135 198 101 163 57 35
167 421 253 -274 -50 328 130 198 101 163 57 40
148 411 261 -293 -40 338 140 207 111 163 62 40
158 406 246 -278 -55 337 140 198 101 172 67 54
158 401 241 -280 -43 327 135 193 96 162 52 40
148 386 236 -278 -40 322 130 198 101 158 52 35
148 395 246 -266 -42 313 135 203 106 162 52 40
163 399 235 -270 -47 322 140 203 101 172 64 44
167 409 240 -280 -34 320 140 204 101 167 59 40
163 399 235 -288 -33 326 135 204 106 167 59 40
158 379 220 -280 -33 319 122 199 102 172 64 44
177 398 220 -268 -29 302 122 208 112 172 59 44
167 418 249 -287 -19 311 122 208 117 182 74 54
172 423 248 -291 -38 335 122 208 112 182 74 54
163 413 248 -296 -36 337 122 213 117 177 64 49
163 408 243 -287 -40 332 122 214 112 182 69 54
158 412 253 -284 -37 327 132 219 123 172 59 44
158 422 261 -283 -45 334 132 219 118 182 69 54
172 416 242 -288 -50 344 132 214 113 177 69 54
167 411 242 -293 -32 331 132 219 118 172 59 44
173 401 227 -288 -35 328 137 219 118 177 64 54
154 401 247 -286 -25 316 152 229 123 172 64 54
144 386 241 -276 -45 326 162 239 137 177 69 54
183 410 225 -264 -47 315 152 234 128 192 85 64
193 415 220 -295 -19 320 142 234 128 187 75 59
173 405 230 -303 -12 319 147 239 137 182 70 54
178 410 230 -288 -27 319 142 239 137 197 85 64
183 415 229 -293 -23 321 147 239 137 192 80 64
178 404 224 -298 -21 324 142 239 138 192 80 64
178 419 239 -290 -21 316 147 250 143 192 80 69
168 413 244 -297 -28 330 152 254 148 197 85 64
173 413 239 -289 -35 330 152 259 153 197 85 69
178 432 252 -292 -30 328 152 259 148 201 89 74
183 426 242 -304 -34 344 147 259 148 200 85 64
203 422 217 -304 -27 336 138 254 143 196 85 69
193 422 227 -311 -5 321 138 264 153 196 80 64
178 417 237 -306 -15 326 143 269 163 205 89 74
178 417 236 -297 -27 328 148 274 163 210 94 83
193 422 226 -297 -27 328 153 284 168 215 99 83
203 445 241 -305 -15 326 143 284 168 220 101 83
203 455 250 -323 -17 345 138 284 172 215 101 83
212 459 246 -327 -22 354 143 293 182 215 101 83
217 478 259 -335 -14 354 138 293 182 230 111 93
227 488 258 -346 -19 371 133 298 182 229 116 103
217 464 244 -356 -14 375 129 298 182 229 116 103
212 467 253 -339 -10 355 119 298 188 229 116 98
217 487 268 -339 -18 362 134 313 198 234 121 103
232 492 257 -351 -23 379 144 323 208 239 126 108
237 497 257 -361 -10 376 139 323 208 248 135 113
232 516 282 -365 -8 379 134 328 208 248 131 113
242 531 286 -373 -23 401 134 343 222 253 131 118
251 530 277 -385 -19 409 130 338 218 263 145 132
256 534 276 -390 -9 405 126 348 228 258 145 127
247 529 281 -395 -7 407 121 348 233 273 155 137
261 524 260 -387 -14 407 126 358 238 273 156 137
247 524 275 -392 3 394 126 363 243 282 161 142
256 538 280 -385 -12 401 131 377 257 287 166 147
281 542 259 -396 -9 410 135 383 267 302 180 157
276 562 283 -411 13 403 135 393 277 307 190 166
290 582 288 -418 -2 425 131 393 277 317 200 181
310 572 260 -435 4 437 121 388 277 321 205 186
278 577 298 -440 26 417 106 383 272 321 205 181
292 576 282 -425 -8 438 106 388 282 321 205 186
297 571 273 -433 7 431 106 393 283 331 214 191
288 599 311 -433 15 424 106 398 288 335 219 197
302 619 316 -442 -10 457 101 398 288 340 224 202
322 623 301 -459 -5 469 106 398 293 340 224 202
302 619 315 -471 12 463 96 393 283 340 229 206
302 622 320 -459 -5 468 96 393 288 335 224 206
302 608 305 -461 -6 473 101 393 293 340 234 211
302 593 290 -453 1 458 112 398 297 345 241 221
292 588 295 -445 8 444 102 394 288 355 246 226
297 593 294 -438 1 444 112 399 297 345 236 216
302 603 299 -443 3 445 112 399 293 355 246 231
302 607 303 -450 3 452 112 399 293 350 246 226
307 596 288 -453 1 457 107 389 293 350 246 226
307 606 298 -450 11 444 107 384 288 355 251 236
302 601 297 -455 6 454 102 379 283 355 251 236
302 611 307 -450 4 450 97 375 278 350 251 236
288 590 302 -455 0 460 102 370 278 350 251 236
283 590 307 -438 -5 448 102 370 279 350 251 236
292 600 307 -436 -9 450 102 365 279 350 251 236
292 590 296 -445 -4 455 103 365 274 350 251 236
283 605 320 -440 1 444 103 365 274 350 246 231
297 600 300 -442 -17 464 98 355 269 350 251 236
297 575 275 -447 1 452 98 345 259 345 246 231
263 560 295 -435 13 427 103 340 265 340 242 221
263 569 304 -410 -13 429 103 340 260 340 247 231
292 564 270 -415 -18 439 109 340 260 340 242 226
278 564 284 -427 14 418 109 335 260 340 242 226
278 559 279 -420 -1 425 104 326 246 340 242 226
283 558 274 -418 2 420 109 331 251 330 232 211
263 558 293 -419 6 418 109 321 246 330 232 216
249 553 303 -409 -13 428 109 317 236 325 227 211
263 543 277 -400 -25 429 104 307 231 320 222 206
263 533 268 -402 -6 412 99 297 216 310 213 202
239 532 292 -397 0 402 119 302 226 300 203 192
229 532 301 -384 -24 414 119 297 216 310 213 197
253 536 281 -379 -34 418 109 283 203 300 203 187
234 512 276 -394 -11 410 114 278 198 285 183 172
249 512 262 -372 -18 395 119 279 203 276 178 163
258 522 262 -379 -4 388 124 274 198 280 183 172
240 506 266 -389 1 393 129 274 198 276 180 167
215 487 270 -372 -11 388 124 264 193 280 185 167
220 487 265 -350 -26 381 124 250 174 276 180 163
215 477 260 -352 -20 377 134 255 174 255 161 143
206 472 265 -345 -20 370 135 245 169 255 161 143
186 467 278 -338 -27 370 135 240 159 250 151 138
210 486 273 -325 -44 374 130 230 154 240 141 128
225 486 259 -347 -30 381 135 225 154 236 137 119
210 465 254 -354 -15 373 130 220 144 236 141 128
191 480 288 -337 -20 361 135 225 149 226 132 114
191 480 287 -334 -47 385 130 211 139 231 141 128
181 460 277 -334 -47 385 125 206 130 221 127 114
186 484 296 -319 -46 371 120 197 125 216 122 104
181 474 291 -334 -53 391 125 192 116 211 117 104
181 454 271 -327 -53 384 125 192 116 206 112 89
206 454 246 -317 -42 365 125 187 116 201 108 94
191 449 256 -329 -18 352 126 187 111 201 113 94
181 458 275 -318 -30 354 126 187 116 196 108 94
181 463 280 -318 -45 369 131 187 116 201 113 99
176 467 290 -321 -47 372 126 177 102 206 113 99
157 457 299 -321 -54 380 126 177 102 192 103 84
176 447 269 -305 -68 380 126 173 97 192 98 84
186 447 259 -310 -44 360 127 173 97 192 103 84
176 451 273 -315 -34 355 137 177 107 186 98 80
181 461 278 -313 -46 364 127 168 97 195 108 99
176 446 267 -320 -46 371 127 168 93 186 98 84
147 437 287 -310 -44 359 122 158 88 181 94 80
152 456 302 -291 -68 363 127 158 88 181 94 80
157 442 282 -303 -73 380 137 163 88 181 94 80
147 421 272 -298 -61 362 132 158 83 186 94 80
147 436 286 -283 -60 347 141 163 88 181 89 75
137 454 315 -291 -67 362 141 173 98 181 96 75
157 459 300 -295 -87 386 141 168 94 191 105 89
167 454 285 -308 -69 382 132 154 79 191 105 89
167 440 270 -310 -56 372 132 159 84 176 91 75
162 439 274 -302 -49 356 127 154 79 181 96 84
147 439 289 -299 -54 359 132 159 84 176 91 75
157 443 284 -292 -69 366 137 164 84 181 96 80
167 429 259 -299 -61 365 132 154 79 181 96 80
157 424 264 -297 -43 345 137 159 79 176 91 70
162 442 278 -290 -50 344 138 165 84 181 91 75
154 447 293 -302 -55 362 138 170 89 186 100 84
149 437 287 -299 -68 371 133 165 84 186 100 84
169 451 282 -291 -68 364 128 160 84 186 100 84
164 446 282 -308 -55 369 133 165 84 186 100 84
154 432 276 -303 -58 365 133 170 84 186 100 84
164 440 276 -291 -60 356 128 170 84 191 100 84
178 445 266 -301 -55 361 138 175 89 186 101 80
183 440 256 -310 -42 358 138 175 94 191 101 80
183 445 261 -310 -35 350 128 170 90 195 111 94
173 445 270 -312 -37 355 128 175 95 195 106 89
144 436 290 -307 -46 359 128 184 104 195 111 89
173 444 269 -288 -70 363 129 179 99 205 116 99
183 439 254 -307 -46 359 124 179 99 200 111 89
173 448 274 -310 -34 349 129 185 105 199 111 89
198 468 268 -310 -48 363 124 185 100 204 116 94
193 468 273 -332 -34 370 129 185 105 199 111 84
198 468 268 -329 -38 372 124 185 110 204 121 94
188 452 263 -332 -33 370 125 185 105 204 121 99
198 442 244 -319 -35 359 125 190 115 204 121 99
183 433 248 -319 -21 344 125 190 115 214 126 104
173 437 262 -306 -30 341 130 200 120 214 131 104
203 442 237 -304 -43 351 135 210 125 219 131 104
217 446 227 -321 -16 341 130 200 120 224 138 109
203 456 251 -331 -4 338 130 205 125 218 133 99
198 484 286 -328 -23 356 125 200 125 223 138 109
208 474 265 -340 -42 387 125 200 121 223 138 109
193 435 241 -340 -27 372 120 200 126 223 138 109
208 450 241 -313 -22 340 115 195 121 223 138 109
193 449 255 -328 -14 347 120 195 121 223 138 109
183 444 260 -320 -28 354 120 205 126 223 138 104
198 449 249 -312 -36 354 120 200 131 233 138 109
208 454 244 -322 -24 350 115 200 126 237 147 109
208 464 253 -330 -16 350 120 200 131 228 138 104
212 464 248 -334 -21 360 115 195 126 237 147 109
212 463 248 -336 -15 357 105 191 121 233 143 109
222 453 228 -336 -15 357 106 186 121 223 138 99
203 447 243 -336 -1 342 116 186 121 223 138 99
198 432 233 -324 -18 347 126 201 131 223 134 99
203 452 247 -314 -15 334 121 191 121 233 144 109
217 451 233 -326 -20 352 121 191 121 228 139 99
227 451 222 -333 -5 343 126 196 126 223 134 94
223 456 231 -338 4 338 111 187 121 228 144 104
194 436 241 -338 -3 345 111 187 116 223 139 99
184 436 250 -314 -22 340 106 178 117 223 134 99
199 451 250 -309 -31 345 116 182 117 217 134 100
184 445 259 -324 -24 352 121 182 117 222 134 100
204 440 235 -314 -35 354 121 182 117 222 134 95
209 439 230 -320 -13 339 117 173 107 217 129 90
199 434 235 -323 -8 336 117 178 113 212 119 81
209 444 235 -315 -16 336 112 168 108 212 129 90
218 464 243 -325 -11 340 107 163 103 212 129 95
204 448 242 -340 -11 355 107 168 108 202 119 85
194 433 238 -325 -17 347 98 158 99 207 129 90
179 433 252 -313 -20 337 103 158 99 202 121 85
194 428 233 -306 -34 344 113 163 103 202 121 81
199 443 241 -310 -17 332 103 154 94 207 126 85
194 443 246 -319 -20 344 113 159 99 197 116 76
179 437 256 -317 -24 347 113 159 99 207 126 85
179 447 266 -307 -37 348 108 149 89 207 126 90
184 436 251 -312 -41 358 108 154 94 192 111 76
174 436 260 -308 -32 346 113 154 95 202 121 85
199 436 235 -304 -40 349 108 144 85 197 121 85
179 435 254 -316 -16 337 113 149 90 188 106 71
184 445 259 -306 -36 346 113 149 90 197 116 81
194 430 235 -313 -35 353 108 144 80 197 116 81
184 421 234 -311 -18 334 108 149 85 188 102 66
194 440 243 -301 -22 329 108 149 85 192 111 81
194 440 243 -316 -22 344 113 149 85 192 116 81
165 424 258 -316 -22 343 113 144 85 192 116 81
174 429 253 -294 -44 343 103 140 75 197 122 85
199 428 228 -301 -36 343 108 140 75 188 112 76
199 433 232 -313 -12 330 109 144 80 188 112 76
179 428 246 -316 -14 334 104 135 75 192 117 76
174 433 256 -304 -31 339 100 135 70 178 103 66
179 437 256 -303 -38 345 100 135 75 177 103 66
179 442 260 -307 -36 348 109 140 80 182 107 76
179 437 255 -310 -38 353 109 141 75 187 117 81
179 437 255 -307 -36 348 104 131 70 182 112 81
165 427 260 -307 -36 348 100 126 66 182 107 71
155 418 260 -295 -45 344 104 136 71 172 98 61
165 431 264 -285 -50 340 109 136 71 182 107 71
180 441 259 -298 -47 349 104 136 76 182 103 71
180 440 258 -310 -37 352 109 136 76 182 107 66
176 440 263 -309 -36 351 100 131 66 182 107 76
157 440 282 -306 -41 353 101 132 67 177 104 66
142 449 307 -296 -61 363 111 142 76 176 104 67
142 440 297 -294 -80 380 120 147 81 186 110 72
152 444 292 -289 -75 370 120 142 81 191 119 81
137 434 296 -296 -68 370 120 132 71 191 114 77
127 424 295 -284 -78 366 120 137 76 181 105 62
161 433 271 -274 -83 361 106 122 57 186 110 67
171 457 285 -296 -53 354 101 122 52 167 90 52
152 438 285 -312 -56 373 106 132 67 167 90 47
166 447 279 -293 -64 364 111 132 71 176 105 67
161 437 274 -305 -55 365 115 137 71 176 100 62
137 417 279 -298 -55 358 111 132 71 181 100 57
127 417 289 -276 -68 350 106 132 67 176 100 62
127 446 318 -270 -78 355 126 142 71 171 95 57
157 437 278 -285 -93 384 121 132 62 181 100 62
157 422 263 -294 -59 359 102 122 57 171 90 52
132 431 297 -287 -51 344 102 132 67 171 90 47
161 440 277 -280 -81 366 102 132 67 186 101 62
152 439 287 -299 -55 361 112 127 63 181 96 62
161 430 267 -294 -65 366 122 137 72 176 91 52
157 439 281 -294 -50 351 113 127 63 181 101 62
152 438 286 -297 -60 362 113 132 68 171 91 52
152 448 296 -294 -65 365 117 138 68 176 96 52
147 453 306 -299 -70 374 122 143 68 181 101 62
127 434 305 -299 -77 381 113 138 69 176 96 57
171 458 284 -280 -87 371 117 138 64 176 96 57
147 458 308 -313 -55 372 122 143 69 171 91 57
132 433 299 -301 -79 385 117 143 73 171 96 62
152 428 274 -281 -81 367 113 133 69 186 106 72
166 436 268 -288 -59 353 113 124 59 176 96 62
157 456 298 -301 -48 355 122 139 73 171 86 47
152 446 293 -306 -68 380 113 139 69 181 96 57
176 441 264 -298 -68 371 113 134 64 180 91 57
152 455 303 -308 -41 354 108 129 59 175 88 52
142 474 331 -303 -73 381 103 134 69 175 98 62
152 455 301 -307 -92 404 113 144 78 190 108 72
157 455 296 -302 -72 380 117 144 74 190 108 67
152 445 291 -305 -67 377 133 149 79 190 103 62
147 450 301 -297 -67 369 118 144 65 190 103 62
158 459 300 -297 -74 377 118 144 70 175 88 47
177 464 285 -306 -69 382 133 158 79 180 98 52
182 487 304 -318 -52 377 138 168 84 185 98 52
197 487 290 -333 -59 398 148 178 99 189 108 62
177 492 314 -340 -45 390 157 184 104 204 117 77
158 481 323 -333 -67 405 157 194 118 204 117 72
187 476 288 -318 -80 405 153 189 109 218 122 81
187 476 288 -330 -49 384 162 194 109 208 113 72
187 467 278 -330 -49 384 167 208 123 208 113 67
182 462 278 -325 -43 374 177 218 133 218 122 81
197 476 277 -321 -45 371 188 228 138 223 123 81
216 519 301 -335 -38 379 193 228 138 228 128 86
231 539 306 -367 -40 413 168 218 133 233 138 101
211 518 306 -384 -35 425 154 223 138 233 143 101
182 509 326 -364 -45 414 149 218 134 238 148 101
201 499 296 -344 -69 419 158 223 139 238 143 101
226 504 275 -349 -44 399 179 228 144 243 148 96
221 508 285 -364 -22 391 169 223 144 252 153 111
216 488 270 -364 -30 398 164 228 144 243 143 101
206 473 265 -351 -25 380 155 223 139 243 143 106
216 478 259 -339 -27 371 145 213 130 233 138 106
221 488 264 -346 -20 371 150 213 130 223 138 106
201 488 284 -354 -20 378 135 203 120 223 138 106
197 507 308 -343 -39 388 130 194 116 218 133 101
177 496 318 -350 -53 410 130 194 116 212 123 86
211 510 297 -336 -68 409 135 195 120 212 130 91
211 491 278 -360 -41 406 120 170 106 227 140 101
206 491 282 -349 -30 387 116 165 106 217 130 91
221 519 296 -347 -35 388 106 156 101 217 135 96
221 505 282 -369 -35 410 101 146 96 217 135 101
187 495 305 -362 -28 394 96 141 96 222 140 106
192 495 300 -340 -57 402 106 146 101 217 140 101
197 490 291 -342 -52 399 111 152 107 227 150 111
187 485 295 -342 -44 392 96 142 97 227 140 101
201 484 281 -335 -51 392 107 152 92 217 130 96
197 455 255 -342 -36 384 102 147 82 212 130 96
187 439 251 -325 -27 357 112 152 87 188 106 77
197 454 254 -313 -29 347 112 142 82 193 111 86
182 468 284 -325 -27 357 117 147 87 188 106 81
177 478 298 -325 -49 378 102 142 82 198 116 86
162 458 292 -327 -58 390 92 127 68 198 111 81
160 458 297 -309 -63 377 92 127 73 183 97 62
174 487 312 -307 -67 379 92 127 68 188 97 67
164 477 312 -329 -67 401 102 132 73 183 92 62
150 462 312 -319 -72 396 102 132 77 183 92 62
160 492 330 -304 -78 389 102 137 77 188 102 72
160 452 291 -324 -83 412 108 128 68 183 97 67
140 421 281 -304 -64 373 98 119 53 173 87 57
155 446 290 -280 -69 354 108 123 58 159 77 47
164 431 266 -299 -66 370 88 114 54 168 82 57
140 441 299 -296 -49 350 78 114 59 168 77 52
150 445 294 -289 -77 371 88 128 74 178 87 57
160 455 294 -296 -70 371 94 123 69 188 97 62
145 450 304 -306 -65 376 89 114 64 183 87 52
145 445 299 -295 -77 379 109 133 74 183 87 47
135 430 293 -293 -75 374 99 123 65 187 92 57
160 450 288 -280 -77 364 89 114 55 172 82 47
169 454 283 -302 -63 370 99 119 60 163 75 38
155 454 297 -310 -55 370 94 128 65 167 75 47
155 448 292 -302 -70 378 99 123 55 172 79 47
150 443 291 -300 -67 372 99 128 60 163 75 42
155 448 291 -295 -69 369 84 123 60 167 79 47
160 467 306 -300 -67 371 89 123 65 172 84 47
150 447 296 -312 -70 388 104 128 79 182 89 52
164 432 267 -298 -70 373 109 128 75 192 99 67
150 417 266 -298 -48 351 119 133 75 181 84 52
164 422 256 -283 -56 344 123 143 75 171 79 47
160 417 255 -292 -44 341 114 144 71 171 79 52
169 431 260 -287 -46 338 119 149 76 166 75 42
164 421 255 -299 -43 348 119 154 85 176 79 42
135 391 254 -292 -43 341 120 154 80 181 84 52
135 376 240 -262 -57 325 129 163 80 176 79 47
169 337 168 -255 -50 310 163 207 95 166 65 28
189 313 124 -253 2 253 188 256 120 166 56 13
184 331 148 -250 33 219 202 311 144 171 46 -1
184 385 199 -257 19 241 212 340 163 176 41 -15
223 439 215 -283 -6 295 212 369 193 176 32 -35
272 502 229 -330 4 329 237 433 271 205 46 -25
325 571 244 -386 22 367 246 496 339 279 115 23
360 615 253 -447 42 408 251 555 412 347 178 77
389 677 287 -486 54 435 276 672 529 420 242 140
467 770 301 -531 52 483 300 794 656 528 344 223
556 832 277 -617 84 537 330 935 827 640 446 321
678 935 257 -692 140 555 355 1067 974 791 588 438
771 1037 267 -804 211 597 296 1053 1028 928 705 550
824 1101 276 -902 252 653 228 984 1057 1019 817 668
868 1148 281 -961 274 689 150 872 1057 1117 954 824
873 1192 319 -1007 295 716 91 774 1038 1200 1081 976
878 1241 363 -1031 278 758 4 600 960 1249 1166 1083
829 1251 421 -1058 258 803 -107 346 818 1259 1220 1161
766 1222 454 -1039 205 837 -234 48 629 1210 1224 1205
736 1230 493 -992 156 840 -292 -234 400 1132 1200 1224
536 1313 775 -983 122 863 -356 -478 185 995 1107 1176
302 1371 1068 -924 -118 1046 -448 -717 -24 849 995 1098
117 1346 1229 -835 -381 1221 -463 -888 -156 692 873 1010
-19 1268 1288 -730 -554 1289 -424 -1015 -278 610 805 966
-39 1180 1220 -623 -652 1279 -409 -1141 -444 527 741 912
-24 1062 1087 -569 -628 1201 -429 -1283 -624 366 590 785
-48 950 999 -518 -555 1077 -483 -1361 -746 190 429 644
-9 857 867 -450 -522 976 -502 -1337 -790 53 287 517
14 740 723 -423 -436 863 -536 -1312 -824 -39 190 424
0 657 655 -376 -352 734 -585 -1273 -834 -117 107 341
9 594 582 -328 -325 659 -585 -1185 -809 -175 39 273
29 554 523 -300 -284 589 -566 -1093 -774 -214 -24 190
68 534 465 -290 -245 540 -527 -985 -726 -244 -77 117
92 504 410 -300 -195 500 -463 -849 -628 -253 -116 63
107 470 361 -297 -156 459 -360 -688 -516 -204 -96 58
126 460 331 -287 -124 417 -257 -507 -394 -136 -67 63
156 485 326 -292 -100 398 -160 -336 -272 -68 -38 58
161 493 331 -318 -83 408 -111 -239 -213 0 1 63
146 454 306 -326 -83 414 -77 -150 -150 19 1 48
175 454 276 -299 -78 382 -38 -86 -101 63 25 63
170 469 296 -313 -49 368 -13 -52 -86 87 40 68
131 435 301 -318 -61 384 1 -8 -52 82 20 43
126 434 306 -282 -82 369 15 20 -23 97 35 48
156 453 295 -279 -87 370 35 44 -8 122 49 58
146 447 300 -304 -67 375 59 79 15 125 49 48
131 428 294 -296 -74 375 74 99 30 145 54 53
141 423 279 -279 -78 363 80 109 35 150 54 48
161 433 269 -282 -66 353 75 114 36 150 54 39
141 417 273 -296 -52 353 70 114 41 145 51 39
146 407 259 -278 -64 348 80 143 65 140 51 39
122 417 293 -276 -54 335 80 143 70 164 66 48
133 398 264 -269 -82 357 89 148 65 169 66 48
128 398 268 -264 -63 332 115 148 60 160 56 39
138 402 263 -261 -68 334 125 158 71 150 46 29
148 397 248 -269 -60 333 134 167 76 154 46 35
148 406 257 -271 -48 324 144 182 90 159 51 35
148 410 262 -276 -53 333 129 177 85 163 56 40
124 425 301 -277 -56 338 110 163 71 159 56 35
128 420 290 -272 -87 365 105 163 76 154 46 30
138 410 270 -272 -80 357 110 164 81 159 56 35
128 399 270 -272 -64 342 120 178 95 168 61 44
153 414 261 -263 -69 337 110 183 95 178 71 49
163 424 261 -281 -52 340 105 173 85 178 71 49
133 419 285 -291 -46 344 105 178 95 173 66 40
133 404 269 -274 -73 353 115 183 100 173 72 49
153 408 254 -267 -66 338 105 178 91 183 77 54
153 423 268 -279 -49 333 110 178 91 173 62 40
133 422 288 -286 -56 347 125 188 101 168 62 40
138 402 263 -276 -75 357 115 183 91 178 77 54
143 397 253 -269 -60 335 120 188 96 168 62 40
153 397 243 -269 -53 327 140 188 96 168 62 40
143 392 248 -274 -43 322 140 193 96 168 62 40
148 401 253 -267 -50 322 135 198 101 163 57 35
167 421 253 -274 -50 328 130 198 101 163 57 40
148 411 261 -293 -40 338 140 207 111 163 62 40
158 406 246 -278 -55 337 140 198 101 172 67 54
158 401 241 -280 -43 327 135 193 96 162 52 40
148 386 236 -278 -40 322 130 198 101 158 52 35
148 395 246 -266 -42 313 135 203 106 162 52 40
163 399 235 -270 -47 322 140 203 101 172 64 44
167 409 240 -280 -34 320 140 204 101 167 59 40
163 399 235 -288 -33 326 135 204 106 167 59 40
158 379 220 -280 -33 319 122 199 102 172 64 44
177 398 220 -268 -29 302 122 208 112 172 59 44
167 418 249 -287 -19 311 122 208 117 182 74 54
172 423 248 -291 -38 335 122 208 112 182 74 54
163 413 248 -296 -36 337 122 213 117 177 64 49
163 408 243 -287 -40 332 122 214 112 182 69 54
158 412 253 -284 -37 327 132 219 123 172 59 44
158 422 261 -283 -45 334 132 219 118 182 69 54
172 416 242 -288 -50 344 132 214 113 177 69 54
167 411 242 -293 -32 331 132 219 118 172 59 44
173 401 227 -288 -35 328 137 219 118 177 64 54
154 401 247 -286 -25 316 152 229 123 172 64 54
144 386 241 -276 -45 326 162 239 137 177 69 54
183 410 225 -264 -47 315 152 234 128 192 85 64
193 415 220 -295 -19 320 142 234 128 187 75 59
173 405 230 -303 -12 319 147 239 137 182 70 54
178 410 230 -288 -27 319 142 239 137 197 85 64
183 415 229 -293 -23 321 147 239 137 192 80 64
178 404 224 -298 -21 324 142 239 138 192 80 64
178 419 239 -290 -21 316 147 250 143 192 80 69
168 413 244 -297 -28 330 152 254 148 197 85 64
173 413 239 -289 -35 330 152 259 153 197 85 69
178 432 252 -292 -30 328 152 259 148 201 89 74
183 426 242 -304 -34 344 147 259 148 200 85 64
203 422 217 -304 -27 336 138 254 143 196 85 69
193 422 227 -311 -5 321 138 264 153 196 80 64
178 417 237 -306 -15 326 143 269 163 205 89 74
178 417 236 -297 -27 328 148 274 163 210 94 83
193 422 226 -297 -27 328 153 284 168 215 99 83
203 445 241 -305 -15 326 143 284 168 220 101 83
203 455 250 -323 -17 345 138 284 172 215 101 83
212 459 246 -327 -22 354 143 293 182 215 101 83
217 478 259 -335 -14 354 138 293 182 230 111 93
227 488 258 -346 -19 371 133 298 182 229 116 103
217 464 244 -356 -14 375 129 298 182 229 116 103
212 467 253 -339 -10 355 119 298 188 229 116 98
217 487 268 -339 -18 362 134 313 198 234 121 103
232 492 257 -351 -23 379 144 323 208 239 126 108
237 497 257 -361 -10 376 139 323 208 248 135 113
232 516 282 -365 -8 379 134 328 208 248 131 113
242 531 286 -373 -23 401 134 343 222 253 131 118
251 530 277 -385 -19 409 130 338 218 263 145 132
256 534 276 -390 -9 405 126 348 228 258 145 127
247 529 281 -395 -7 407 121 348 233 273 155 137
261 524 260 -387 -14 407 126 358 238 273 156 137
247 524 275 -392 3 394 126 363 243 282 161 142
256 538 280 -385 -12 401 131 377 257 287 166 147
281 542 259 -396 -9 410 135 383 267 302 180 157
276 562 283 -411 13 403 135 393 277 307 190 166
290 582 288 -418 -2 425 131 393 277 317 200 181
310 572 260 -435 4 437 121 388 277 321 205 186
278 577 298 -440 26 417 106 383 272 321 205 181
292 576 282 -425 -8 438 106 388 282 321 205 186
297 571 273 -433 7 431 106 393 283 331 214 191
288 599 311 -433 15 424 106 398 288 335 219 197
302 619 316 -442 -10 457 101 398 288 340 224 202
322 623 301 -459 -5 469 106 398 293 340 224 202
302 619 315 -471 12 463 96 393 283 340 229 206
302 622 320 -459 -5 468 96 393 288 335 224 206
302 608 305 -461 -6 473 101 393 293 340 234 211
302 593 290 -453 1 458 112 398 297 345 241 221
292 588 295 -445 8 444 102 394 288 355 246 226
297 593 294 -438 1 444 112 399 297 345 236 216
302 603 299 -443 3 445 112 399 293 355 246 231
302 607 303 -450 3 452 112 399 293 350 246 226
307 596 288 -453 1 457 107 389 293 350 246 226
307 606 298 -450 11 444 107 384 288 355 251 236
302 601 297 -455 6 454 102 379 283 355 251 236
302 611 307 -450 4 450 97 375 278 350 251 236
288 590 302 -455 0 460 102 370 278 350 251 236
283 590 307 -438 -5 448 102 370 279 350 251 236
292 600 307 -436 -9 450 102 365 279 350 251 236
292 590 296 -445 -4 455 103 365 274 350 251 236
283 605 320 -440 1 444 103 365 274 350 246 231
297 600 300 -442 -17 464 98 355 269 350 251 236
297 575 275 -447 1 452 98 345 259 345 246 231
263 560 295 -435 13 427 103 340 265 340 242 221
263 569 304 -410 -13 429 103 340 260 340 247 231
292 564 270 -415 -18 439 109 340 260 340 242 226
278 564 284 -427 14 418 109 335 260 340 242 226
278 559 279 -420 -1 425 104 326 246 340 242 226
283 558 274 -418 2 420 109 331 251 330 232 211
263 558 293 -419 6 418 109 321 246 330 232 216
249 553 303 -409 -13 428 109 317 236 325 227 211
263 543 277 -400 -25 429 104 307 231 320 222 206
263 533 268 -402 -6 412 99 297 216 310 213 202
239 532 292 -397 0 402 119 302 226 300 203 192
229 532 301 -384 -24 414 119 297 216 310 213 197
253 536 281 -379 -34 418 109 283 203 300 203 187
234 512 276 -394 -11 410 114 278 198 285 183 172
249 512 262 -372 -18 395 119 279 203 276 178 163
258 522 262 -379 -4 388 124 274 198 280 183 172
240 506 266 -389 1 393 129 274 198 276 180 167
215 487 270 -372 -11 388 124 264 193 280 185 167
220 487 265 -350 -26 381 124 250 174 276 180 163
215 477 260 -352 -20 377 134 255 174 255 161 143
206 472 265 -345 -20 370 135 245 169 255 161 143
186 467 278 -338 -27 370 135 240 159 250 151 138
210 486 273 -325 -44 374 130 230 154 240 141 128
225 486 259 -347 -30 381 135 225 154 236 137 119
210 465 254 -354 -15 373 130 220 144 236 141 128
191 480 288 -337 -20 361 135 225 149 226 132 114
191 480 287 -334 -47 385 130 211 139 231 141 128
181 460 277 -334 -47 385 125 206 130 221 127 114
186 484 296 -319 -46 371 120 197 125 216 122 104
181 474 291 -334 -53 391 125 192 116 211 117 104
181 454 271 -327 -53 384 125 192 116 206 112 89
206 454 246 -317 -42 365 125 187 116 201 108 94
191 449 256 -329 -18 352 126 187 111 201 113 94
181 458 275 -318 -30 354 126 187 116 196 108 94
181 463 280 -318 -45 369 131 187 116 201 113 99
176 467 290 -321 -47 372 126 177 102 206 113 99
157 457 299 -321 -54 380 126 177 102 192 103 84
176 447 269 -305 -68 380 126 173 97 192 98 84
186 447 259 -310 -44 360 127 173 97 192 103 84
176 451 273 -315 -34 355 137 177 107 186 98 80
181 461 278 -313 -46 364 127 168 97 195 108 99
176 446 267 -320 -46 371 127 168 93 186 98 84
147 437 287 -310 -44 359 122 158 88 181 94 80
152 456 302 -291 -68 363 127 158 88 181 94 80
157 442 282 -303 -73 380 137 163 88 181 94 80
147 421 272 -298 -61 362 132 158 83 186 94 80
147 436 286 -283 -60 347 141 163 88 181 89 75
137 454 315 -291 -67 362 141 173 98 181 96 75
157 459 300 -295 -87 386 141 168 94 191 105 89
167 454 285 -308 -69 382 132 154 79 191 105 89
167 440 270 -310 -56 372 132 159 84 176 91 75
162 439 274 -302 -49 356 127 154 79 181 96 84
147 439 289 -299 -54 359 132 159 84 176 91 75
157 443 284 -292 -69 366 137 164 84 181 96 80
167 429 259 -299 -61 365 132 154 79 181 96 80
157 424 264 -297 -43 345 137 159 79 176 91 70
162 442 278 -290 -50 344 138 165 84 181 91 75
154 447 293 -302 -55 362 138 170 89 186 100 84
149 437 287 -299 -68 371 133 165 84 186 100 84
169 451 282 -291 -68 364 128 160 84 186 100 84
164 446 282 -308 -55 369 133 165 84 186 100 84
154 432 276 -303 -58 365 133 170 84 186 100 84
164 440 276 -291 -60 356 128 170 84 191 100 84
178 445 266 -301 -55 361 138 175 89 186 101 80
183 440 256 -310 -42 358 138 175 94 191 101 80
183 445 261 -310 -35 350 128 170 90 195 111 94
173 445 270 -312 -37 355 128 175 95 195 106 89
144 436 290 -307 -46 359 128 184 104 195 111 89
173 444 269 -288 -70 363 129 179 99 205 116 99
183 439 254 -307 -46 359 124 179 99 200 111 89
173 448 274 -310 -34 349 129 185 105 199 111 89
198 468 268 -310 -48 363 124 185 100 204 116 94
193 468 273 -332 -34 370 129 185 105 199 111 84
198 468 268 -329 -38 372 124 185 110 204 121 94
188 452 263 -332 -33 370 125 185 105 204 121 99
198 442 244 -319 -35 359 125 190 115 204 121 99
183 433 248 -319 -21 344 125 190 115 214 126 104
173 437 262 -306 -30 341 130 200 120 214 131 104
203 442 237 -304 -43 351 135 210 125 219 131 104
217 446 227 -321 -16 341 130 200 120 224 138 109
203 456 251 -331 -4 338 130 205 125 218 133 99
198 484 286 -328 -23 356 125 200 125 223 138 109
208 474 265 -340 -42 387 125 200 121 223 138 109
193 435 241 -340 -27 372 120 200 126 223 138 109
208 450 241 -313 -22 340 115 195 121 223 138 109
193 449 255 -328 -14 347 120 195 121 223 138 109
183 444 260 -320 -28 354 120 205 126 223 138 104
198 449 249 -312 -36 354 120 200 131 233 138 109
208 454 244 -322 -24 350 115 200 126 237 147 109
208 464 253 -330 -16 350 120 200 131 228 138 104
212 464 248 -334 -21 360 115 195 126 237 147 109
212 463 248 -336 -15 357 105 191 121 233 143 109
222 453 228 -336 -15 357 106 186 121 223 138 99
203 447 243 -336 -1 342 116 186 121 223 138 99
198 432 233 -324 -18 347 126 201 131 223 134 99
203 452 247 -314 -15 334 121 191 121 233 144 109
217 451 233 -326 -20 352 121 191 121 228 139 99
227 451 222 -333 -5 343 126 196 126 223 134 94
223 456 231 -338 4 338 111 187 121 228 144 104
194 436 241 -338 -3 345 111 187 116 223 139 99
184 436 250 -314 -22 340 106 178 117 223 134 99
199 451 250 -309 -31 345 116 182 117 217 134 100
184 445 259 -324 -24 352 121 182 117 222 134 100
204 440 235 -314 -35 354 121 182 117 222 134 95
209 439 230 -320 -13 339 117 173 107 217 129 90
199 434 235 -323 -8 336 117 178 113 212 119 81
209 444 235 -315 -16 336 112 168 108 212 129 90
218 464 243 -325 -11 340 107 163 103 212 129 95
204 448 242 -340 -11 355 107 168 108 202 119 85
194 433 238 -325 -17 347 98 158 99 207 129 90
179 433 252 -313 -20 337 103 158 99 202 121 85
194 428 233 -306 -34 344 113 163 103 202 121 81
199 443 241 -310 -17 332 103 154 94 207 126 85
194 443 246 -319 -20 344 113 159 99 197 116 76
179 437 256 -317 -24 347 113 159 99 207 126 85
179 447 266 -307 -37 348 108 149 89 207 126 90
184 436 251 -312 -41 358 108 154 94 192 111 76
174 436 260 -308 -32 346 113 154 95 202 121 85
199 436 235 -304 -40 349 108 144 85 197 121 85
179 435 254 -316 -16 337 113 149 90 188 106 71
184 445 259 -306 -36 346 113 149 90 197 116 81
194 430 235 -313 -35 353 108 144 80 197 116 81
184 421 234 -311 -18 334 108 149 85 188 102 66
194 440 243 -301 -22 329 108 149 85 192 111 81
194 440 243 -316 -22 344 113 149 85 192 116 81
165 424 258 -316 -22 343 113 144 85 192 116 81
174 429 253 -294 -44 343 103 140 75 197 122 85
199 428 228 -301 -36 343 108 140 75 188 112 76
199 433 232 -313 -12 330 109 144 80 188 112 76
179 428 246 -316 -14 334 104 135 75 192 117 76
174 433 256 -304 -31 339 100 135 70 178 103 66
179 437 256 -303 -38 345 100 135 75 177 103 66
179 442 260 -307 -36 348 109 140 80 182 107 76
179 437 255 -310 -38 353 109 141 75 187 117 81
179 437 255 -307 -36 348 104 131 70 182 112 81
165 427 260 -307 -36 348 100 126 66 182 107 71
155 418 260 -295 -45 344 104 136 71 172 98 61
165 431 264 -285 -50 340 109 136 71 182 107 71
180 441 259 -298 -47 349 104 136 76 182 103 71
180 440 258 -310 -37 352 109 136 76 182 107 66
176 440 263 -309 -36 351 100 131 66 182 107 76
157 440 282 -306 -41 353 101 132 67 177 104 66
142 449 307 -296 -61 363 111 142 76 176 104 67
142 440 297 -294 -80 380 120 147 81 186 110 72
152 444 292 -289 -75 370 120 142 81 191 119 81
137 434 296 -296 -68 370 120 132 71 191 114 77
127 424 295 -284 -78 366 120 137 76 181 105 62
161 433 271 -274 -83 361 106 122 57 186 110 67
171 457 285 -296 -53 354 101 122 52 167 90 52
152 438 285 -312 -56 373 106 132 67 167 90 47
166 447 279 -293 -64 364 111 132 71 176 105 67
161 437 274 -305 -55 365 115 137 71 176 100 62
137 417 279 -298 -55 358 111 132 71 181 100 57
127 417 289 -276 -68 350 106 132 67 176 100 62
127 446 318 -270 -78 355 126 142 71 171 95 57
157 437 278 -285 -93 384 121 132 62 181 100 62
157 422 263 -294 -59 359 102 122 57 171 90 52
132 431 297 -287 -51 344 102 132 67 171 90 47
161 440 277 -280 -81 366 102 132 67 186 101 62
152 439 287 -299 -55 361 112 127 63 181 96 62
161 430 267 -294 -65 366 122 137 72 176 91 52
157 439 281 -294 -50 351 113 127 63 181 101 62
152 438 286 -297 -60 362 113 132 68 171 91 52
152 448 296 -294 -65 365 117 138 68 176 96 52
147 453 306 -299 -70 374 122 143 68 181 101 62
127 434 305 -299 -77 381 113 138 69 176 96 57
171 458 284 -280 -87 371 117 138 64 176 96 57
147 458 308 -313 -55 372 122 143 69 171 91 57
132 433 299 -301 -79 385 117 143 73 171 96 62
152 428 274 -281 -81 367 113 133 69 186 106 72
166 436 268 -288 -59 353 113 124 59 176 96 62
157 456 298 -301 -48 355 122 139 73 171 86 47
152 446 293 -306 -68 380 113 139 69 181 96 57
176 441 264 -298 -68 371 113 134 64 180 91 57
152 455 303 -308 -41 354 108 129 59 175 88 52
142 474 331 -303 -73 381 103 134 69 175 98 62
152 455 301 -307 -92 404 113 144 78 190 108 72
157 455 296 -302 -72 380 117 144 74 190 108 67
152 445 291 -305 -67 377 133 149 79 190 103 62
147 450 301 -297 -67 369 118 144 65 190 103 62
158 459 300 -297 -74 377 118 144 70 175 88 47
177 464 285 -306 -69 382 133 158 79 180 98 52
182 487 304 -318 -52 377 138 168 84 185 98 52
197 487 290 -333 -59 398 148 178 99 189 108 62
177 492 314 -340 -45 390 157 184 104 204 117 77
158 481 323 -333 -67 405 157 194 118 204 117 72
187 476 288 -318 -80 405 153 189 109 218 122 81
187 476 288 -330 -49 384 162 194 109 208 113 72
187 467 278 -330 -49 384 167 208 123 208 113 67
182 462 278 -325 -43 374 177 218 133 218 122 81
197 476 277 -321 -45 371 188 228 138 223 123 81
216 519 301 -335 -38 379 193 228 138 228 128 86
231 539 306 -367 -40 413 168 218 133 233 138 101
211 518 306 -384 -35 425 154 223 138 233 143 101
182 509 326 -364 -45 414 149 218 134 238 148 101
201 499 296 -344 -69 419 158 223 139 238 143 101
226 504 275 -349 -44 399 179 228 144 243 148 96
221 508 285 -364 -22 391 169 223 144 252 153 111
216 488 270 -364 -30 398 164 228 144 243 143 101
206 473 265 -351 -25 380 155 223 139 243 143 106
216 478 259 -339 -27 371 145 213 130 233 138 106
221 488 264 -346 -20 371 150 213 130 223 138 106
201 488 284 -354 -20 378 135 203 120 223 138 106
197 507 308 -343 -39 388 130 194 116 218 133 101
177 496 318 -350 -53 410 130 194 116 212 123 86
211 510 297 -336 -68 409 135 195 120 212 130 91
211 491 278 -360 -41 406 120 170 106 227 140 101
206 491 282 -349 -30 387 116 165 106 217 130 91
221 519 296 -347 -35 388 106 156 101 217 135 96
221 505 282 -369 -35 410 101 146 96 217 135 101
187 495 305 -362 -28 394 96 141 96 222 140 106
192 495 300 -340 -57 402 106 146 101 217 140 101
197 490 291 -342 -52 399 111 152 107 227 150 111
187 485 295 -342 -44 392 96 142 97 227 140 101
201 484 281 -335 -51 392 107 152 92 217 130 96
197 455 255 -342 -36 384 102 147 82 212 130 96
187 439 251 -325 -27 357 112 152 87 188 106 77
197 454 254 -313 -29 347 112 142 82 193 111 86
182 468 284 -325 -27 357 117 147 87 188 106 81
177 478 298 -325 -49 378 102 142 82 198 116 86
162 458 292 -327 -58 390 92 127 68 198 111 81
160 458 297 -309 -63 377 92 127 73 183 97 62
174 487 312 -307 -67 379 92 127 68 188 97 67
164 477 312 -329 -67 401 102 132 73 183 92 62
150 462 312 -319 -72 396 102 132 77 183 92 62
160 492 330 -304 -78 389 102 137 77 188 102 72
160 452 291 -324 -83 412 108 128 68 183 97 67
140 421 281 -304 -64 373 98 119 53 173 87 57
155 446 290 -280 -69 354 108 123 58 159 77 47
164 431 266 -299 -66 370 88 114 54 168 82 57
140 441 299 -296 -49 350 78 114 59 168 77 52
150 445 294 -289 -77 371 88 128 74 178 87 57
160 455 294 -296 -70 371 94 123 69 188 97 62
145 450 304 -306 -65 376 89 114 64 183 87 52
145 445 299 -295 -77 379 109 133 74 183 87 47
135 430 293 -293 -75 374 99 123 65 187 92 57
160 450 288 -280 -77 364 89 114 55 172 82 47
169 454 283 -302 -63 370 99 119 60 163 75 38
155 454 297 -310 -55 370 94 128 65 167 75 47
155 448 292 -302 -70 378 99 123 55 172 79 47
150 443 291 -300 -67 372 99 128 60 163 75 42
155 448 291 -295 -69 369 84 123 60 167 79 47
160 467 306 -300 -67 371 89 123 65 172 84 47
150 447 296 -312 -70 388 104 128 79 182 89 52
164 432 267 -298 -70 373 109 128 75 192 99 67
150 417 266 -298 -48 351 119 133 75 181 84 52
164 422 256 -283 -56 344 123 143 75 171 79 47
160 417 255 -292 -44 341 114 144 71 171 79 52
169 431 260 -287 -46 338 119 149 76 166 75 42
164 421 255 -299 -43 348 119 154 85 176 79 42
135 391 254 -292 -43 341 120 154 80 181 84 52
135 376 240 -262 -57 325 129 163 80 176 79 47
169 337 168 -255 -50 310 163 207 95 166 65 28
189 313 124 -253 2 253 188 256 120 166 56 13
184 331 148 -250 33 219 202 311 144 171 46 -1
184 385 199 -257 19 241 212 340 163 176 41 -15
223 439 215 -283 -6 295 212 369 193 176 32 -35
272 502 229 -330 4 329 237 433 271 205 46 -25
325 571 244 -386 22 367 246 496 339 279 115 23
360 615 253 -447 42 408 251 555 412 347 178 77
389 677 287 -486 54 435 276 672 529 420 242 140
467 770 301 -531 52 483 300 794 656 528 344 223
556 832 277 -617 84 537 330 935 827 640 446 321
678 935 257 -692 140 555 355 1067 974 791 588 438
771 1037 267 -804 211 597 296 1053 1028 928 705 550
824 1101 276 -902 252 653 228 984 1057 1019 817 668
868 1148 281 -961 274 689 150 872 1057 1117 954 824
873 1192 319 -1007 295 716 91 774 1038 1200 1081 976
878 1241 363 -1031 278 758 4 600 960 1249 1166 1083
829 1251 421 -1058 258 803 -107 346 818 1259 1220 1161
766 1222 454 -1039 205 837 -234 48 629 1210 1224 1205
736 1230 493 -992 156 840 -292 -234 400 1132 1200 1224
536 1313 775 -983 122 863 -356 -478 185 995 1107 1176
302 1371 1068 -924 -118 1046 -448 -717 -24 849 995 1098
117 1346 1229 -835 -381 1221 -463 -888 -156 692 873 1010
-19 1268 1288 -730 -554 1289 -424 -1015 -278 610 805 966
-39 1180 1220 -623 -652 1279 -409 -1141 -444 527 741 912
-24 1062 1087 -569 -628 1201 -429 -1283 -624 366 590 785
-48 950 999 -518 -555 1077 -483 -1361 -746 190 429 644
-9 857 867 -450 -522 976 -502 -1337 -790 53 287 517
14 740 723 -423 -436 863 -536 -1312 -824 -39 190 424
0 657 655 -376 -352 734 -585 -1273 -834 -117 107 341
9 594 582 -328 -325 659 -585 -1185 -809 -175 39 273
29 554 523 -300 -284 589 -566 -1093 -774 -214 -24 190
68 534 465 -290 -245 540 -527 -985 -726 -244 -77 117
92 504 410 -300 -195 500 -463 -849 -628 -253 -116 63
107 470 361 -297 -156 459 -360 -688 -516 -204 -96 58
126 460 331 -287 -124 417 -257 -507 -394 -136 -67 63
156 485 326 -292 -100 398 -160 -336 -272 -68 -38 58
161 493 331 -318 -83 408 -111 -239 -213 0 1 63
146 454 306 -326 -83 414 -77 -150 -150 19 1 48
175 454 276 -299 -78 382 -38 -86 -101 63 25 63
170 469 296 -313 -49 368 -13 -52 -86 87 40 68
131 435 301 -318 -61 384 1 -8 -52 82 20 43
126 434 306 -282 -82 369 15 20 -23 97 35 48
156 453 295 -279 -87 370 35 44 -8 122 49 58
146 447 300 -304 -67 375 59 79 15 125 49 48
131 428 294 -296 -74 375 74 99 30 145 54 53
141 423 279 -279 -78 363 80 109 35 150 54 48
161 433 269 -282 -66 353 75 114 36 150 54 39
141 417 273 -296 -52 353 70 114 41 145 51 39
146 407 259 -278 -64 348 80 143 65 140 51 39
122 417 293 -276 -54 335 80 143 70 164 66 48
133 398 264 -269 -82 357 89 148 65 169 66 48
128 398 268 -264 -63 332 115 148 60 160 56 39
138 402 263 -261 -68 334 125 158 71 150 46 29
148 397 248 -269 -60 333 134 167 76 154 46 35
148 406 257 -271 -48 324 144 182 90 159 51 35
148 410 262 -276 -53 333 129 177 85 163 56 40
124 425 301 -277 -56 338 110 163 71 159 56 35
128 420 290 -272 -87 365 105 163 76 154 46 30
138 410 270 -272 -80 357 110 164 81 159 56 35
128 399 270 -272 -64 342 120 178 95 168 61 44
153 414 261 -263 -69 337 110 183 95 178 71 49
163 424 261 -281 -52 340 105 173 85 178 71 49
133 419 285 -291 -46 344 105 178 95 173 66 40
133 404 269 -274 -73 353 115 183 100 173 72 49
153 408 254 -267 -66 338 105 178 91 183 77 54
153 423 268 -279 -49 333 110 178 91 173 62 40
133 422 288 -286 -56 347 125 188 101 168 62 40
138 402 263 -276 -75 357 115 183 91 178 77 54
143 397 253 -269 -60 335 120 188 96 168 62 40
153 397 243 -269 -53 327 140 188 96 168 62 40
143 392 248 -274 -43 322 140 193 96 168 62 40
148 401 253 -267 -50 322 135 198 101 163 57 35
167 421 253 -274 -50 328 130 198 101 163 57 40
148 411 261 -293 -40 338 140 207 111 163 62 40
158 406 246 -278 -55 337 140 198 101 172 67 54
158 401 241 -280 -43 327 135 193 96 162 52 40
148 386 236 -278 -40 322 130 198 101 158 52 35
148 395 246 -266 -42 313 135 203 106 162 52 40
163 399 235 -270 -47 322 140 203 101 172 64 44
167 409 240 -280 -34 320 140 204 101 167 59 40
163 399 235 -288 -33 326 135 204 106 167 59 40
158 379 220 -280 -33 319 122 199 102 172 64 44
177 398 220 -268 -29 302 122 208 112 172 59 44
167 418 249 -287 -19 311 122 208 117 182 74 54
172 423 248 -291 -38 335 122 208 112 182 74 54
163 413 248 -296 -36 337 122 213 117 177 64 49
163 408 243 -287 -40 332 122 214 112 182 69 54
158 412 253 -284 -37 327 132 219 123 172 59 44
158 422 261 -283 -45 334 132 219 118 182 69 54
172 416 242 -288 -50 344 132 214 113 177 69 54
167 411 242 -293 -32 331 132 219 118 172 59 44
173 401 227 -288 -35 328 137 219 118 177 64 54
154 401 247 -286 -25 316 152 229 123 172 64 54
144 386 241 -276 -45 326 162 239 137 177 69 54
183 410 225 -264 -47 315 152 234 128 192 85 64
193 415 220 -295 -19 320 142 234 128 187 75 59
173 405 230 -303 -12 319 147 239 137 182 70 54
178 410 230 -288 -27 319 142 239 137 197 85 64
183 415 229 -293 -23 321 147 239 137 192 80 64
178 404 224 -298 -21 324 142 239 138 192 80 64
178 419 239 -290 -21 316 147 250 143 192 80 69
168 413 244 -297 -28 330 152 254 148 197 85 64
173 413 239 -289 -35 330 152 259 153 197 85 69
178 432 252 -292 -30 328 152 259 148 201 89 74
183 426 242 -304 -34 344 147 259 148 200 85 64
203 422 217 -304 -27 336 138 254 143 196 85 69
193 422 227 -311 -5 321 138 264 153 196 80 64
178 417 237 -306 -15 326 143 269 163 205 89 74
178 417 236 -297 -27 328 148 274 163 210 94 83
193 422 226 -297 -27 328 153 284 168 215 99 83
203 445 241 -305 -15 326 143 284 168 220 101 83
203 455 250 -323 -17 345 138 284 172 215 101 83
212 459 246 -327 -22 354 143 293 182 215 101 83
217 478 259 -335 -14 354 138 293 182 230 111 93
227 488 258 -346 -19 371 133 298 182 229 116 103
217 464 244 -356 -14 375 129 298 182 229 116 103
212 467 253 -339 -10 355 119 298 188 229 116 98
217 487 268 -339 -18 362 134 313 198 234 121 103
232 492 257 -351 -23 379 144 323 208 239 126 108
237 497 257 -361 -10 376 139 323 208 248 135 113
232 516 282 -365 -8 379 134 328 208 248 131 113
242 531 286 -373 -23 401 134 343 222 253 131 118
251 530 277 -385 -19 409 130 338 218 263 145 132
256 534 276 -390 -9 405 126 348 228 258 145 127
247 529 281 -395 -7 407 121 348 233 273 155 137
261 524 260 -387 -14 407 126 358 238 273 156 137
247 524 275 -392 3 394 126 363 243 282 161 142
256 538 280 -385 -12 401 131 377 257 287 166 147
281 542 259 -396 -9 410 135 383 267 302 180 157
276 562 283 -411 13 403 135 393 277 307 190 166
290 582 288 -418 -2 425 131 393 277 317 200 181
310 572 260 -435 4 437 121 388 277 321 205 186
278 577 298 -440 26 417 106 383 272 321 205 181
292 576 282 -425 -8 438 106 388 282 321 205 186
297 571 273 -433 7 431 106 393 283 331 214 191
288 599 311 -433 15 424 106 398 288 335 219 197
302 619 316 -442 -10 457 101 398 288 340 224 202
322 623 301 -459 -5 469 106 398 293 340 224 202
302 619 315 -471 12 463 96 393 283 340 229 206
302 622 320 -459 -5 468 96 393 288 335 224 206
302 608 305 -461 -6 473 101 393 293 340 234 211
302 593 290 -453 1 458 112 398 297 345 241 221
292 588 295 -445 8 444 102 394 288 355 246 226
297 593 294 -438 1 444 112 399 297 345 236 216
302 603 299 -443 3 445 112 399 293 355 246 231
302 607 303 -450 3 452 112 399 293 350 246 226
307 596 288 -453 1 457 107 389 293 350 246 226
307 606 298 -450 11 444 107 384 288 355 251 236
302 601 297 -455 6 454 102 379 283 355 251 236
302 611 307 -450 4 450 97 375 278 350 251 236
288 590 302 -455 0 460 102 370 278 350 251 236
283 590 307 -438 -5 448 102 370 279 350 251 236
292 600 307 -436 -9 450 102 365 279 350 251 236
292 590 296 -445 -4 455 103 365 274 350 251 236
283 605 320 -440 1 444 103 365 274 350 246 231
297 600 300 -442 -17 464 98 355 269 350 251 236
297 575 275 -447 1 452 98 345 259 345 246 231
263 560 295 -435 13 427 103 340 265 340 242 221
263 569 304 -410 -13 429 103 340 260 340 247 231
292 564 270 -415 -18 439 109 340 260 340 242 226
278 564 284 -427 14 418 109 335 260 340 242 226
278 559 279 -420 -1 425 104 326 246 340 242 226
283 558 274 -418 2 420 109 331 251 330 232 211
263 558 293 -419 6 418 109 321 246 330 232 216
249 553 303 -409 -13 428 109 317 236 325 227 211
263 543 277 -400 -25 429 104 307 231 320 222 206
263 533 268 -402 -6 412 99 297 216 310 213 202
239 532 292 -397 0 402 119 302 226 300 203 192
229 532 301 -384 -24 414 119 297 216 310 213 197
253 536 281 -379 -34 418 109 283 203 300 203 187
234 512 276 -394 -11 410 114 278 198 285 183 172
249 512 262 -372 -18 395 119 279 203 276 178 163
258 522 262 -379 -4 388 124 274 198 280 183 172
240 506 266 -389 1 393 129 274 198 276 180 167
215 487 270 -372 -11 388 124 264 193 280 185 167
220 487 265 -350 -26 381 124 250 174 276 180 163
215 477 260 -352 -20 377 134 255 174 255 161 143
206 472 265 -345 -20 370 135 245 169 255 161 143
186 467 278 -338 -27 370 135 240 159 250 151 138
210 486 273 -325 -44 374 130 230 154 240 141 128
225 486 259 -347 -30 381 135 225 154 236 137 119
210 465 254 -354 -15 373 130 220 144 236 141 128
191 480 288 -337 -20 361 135 225 149 226 132 114
191 480 287 -334 -47 385 130 211 139 231 141 128
181 460 277 -334 -47 385 125 206 130 221 127 114
186 484 296 -319 -46 371 120 197 125 216 122 104
181 474 291 -334 -53 391 125 192 116 211 117 104
181 454 271 -327 -53 384 125 192 116 206 112 89
206 454 246 -317 -42 365 125 187 116 201 108 94
191 449 256 -329 -18 352 126 187 111 201 113 94
181 458 275 -318 -30 354 126 187 116 196 108 94
181 463 280 -318 -45 369 131 187 116 201 113 99
176 467 290 -321 -47 372 126 177 102 206 113 99
157 457 299 -321 -54 380 126 177 102 192 103 84
176 447 269 -305 -68 380 126 173 97 192 98 84
186 447 259 -310 -44 360 127 173 97 192 103 84
176 451 273 -315 -34 355 137 177 107 186 98 80
181 461 278 -313 -46 364 127 168 97 195 108 99
176 446 267 -320 -46 371 127 168 93 186 98 84
147 437 287 -310 -44 359 122 158 88 181 94 80
152 456 302 -291 -68 363 127 158 88 181 94 80
157 442 282 -303 -73 380 137 163 88 181 94 80
147 421 272 -298 -61 362 132 158 83 186 94 80
147 436 286 -283 -60 347 141 163 88 181 89 75
137 454 315 -291 -67 362 141 173 98 181 96 75
157 459 300 -295 -87 386 141 168 94 191 105 89
167 454 285 -308 -69 382 132 154 79 191 105 89
167 440 270 -310 -56 372 132 159 84 176 91 75
162 439 274 -302 -49 356 127 154 79 181 96 84
147 439 289 -299 -54 359 132 159 84 176 91 75
157 443 284 -292 -69 366 137 164 84 181 96 80
167 429 259 -299 -61 365 132 154 79 181 96 80
157 424 264 -297 -43 345 137 159 79 176 91 70
162 442 278 -290 -50 344 138 165 84 181 91 75
154 447 293 -302 -55 362 138 170 89 186 100 84
149 437 287 -299 -68 371 133 165 84 186 100 84
169 451 282 -291 -68 364 128 160 84 186 100 84
164 446 282 -308 -55 369 133 165 84 186 100 84
154 432 276 -303 -58 365 133 170 84 186 100 84
164 440 276 -291 -60 356 128 170 84 191 100 84
178 445 266 -301 -55 361 138 175 89 186 101 80
183 440 256 -310 -42 358 138 175 94 191 101 80
183 445 261 -310 -35 350 128 170 90 195 111 94
173 445 270 -312 -37 355 128 175 95 195 106 89
144 436 290 -307 -46 359 128 184 104 195 111 89
173 444 269 -288 -70 363 129 179 99 205 116 99
183 439 254 -307 -46 359 124 179 99 200 111 89
173 448 274 -310 -34 349 129 185 105 199 111 89
198 468 268 -310 -48 363 124 185 100 204 116 94
193 468 273 -332 -34 370 129 185 105 199 111 84
198 468 268 -329 -38 372 124 185 110 204 121 94
188 452 263 -332 -33 370 125 185 105 204 121 99
198 442 244 -319 -35 359 125 190 115 204 121 99
183 433 248 -319 -21 344 125 190 115 214 126 104
173 437 262 -306 -30 341 130 200 120 214 131 104
203 442 237 -304 -43 351 135 210 125 219 131 104
217 446 227 -321 -16 341 130 200 120 224 138 109
203 456 251 -331 -4 338 130 205 125 218 133 99
198 484 286 -328 -23 356 125 200 125 223 138 109
208 474 265 -340 -42 387 125 200 121 223 138 109
193 435 241 -340 -27 372 120 200 126 223 138 109
208 450 241 -313 -22 340 115 195 121 223 138 109
193 449 255 -328 -14 347 120 195 121 223 138 109
183 444 260 -320 -28 354 120 205 126 223 138 104
198 449 249 -312 -36 354 120 200 131 233 138 109
208 454 244 -322 -24 350 115 200 126 237 147 109
208 464 253 -330 -16 350 120 200 131 228 138 104
212 464 248 -334 -21 360 115 195 126 237 147 109
212 463 248 -336 -15 357 105 191 121 233 143 109
222 453 228 -336 -15 357 106 186 121 223 138 99
203 447 243 -336 -1 342 116 186 121 223 138 99
198 432 233 -324 -18 347 126 201 131 223 134 99
203 452 247 -314 -15 334 121 191 121 233 144 109
217 451 233 -326 -20 352 121 191 121 228 139 99
227 451 222 -333 -5 343 126 196 126 223 134 94
223 456 231 -338 4 338 111 187 121 228 144 104
194 436 241 -338 -3 345 111 187 116 223 139 99
184 436 250 -314 -22 340 106 178 117 223 134 99
199 451 250 -309 -31 345 116 182 117 217 134 100
184 445 259 -324 -24 352 121 182 117 222 134 100
204 440 235 -314 -35 354 121 182 117 222 134 95
209 439 230 -320 -13 339 117 173 107 217 129 90
199 434 235 -323 -8 336 117 178 113 212 119 81
209 444 235 -315 -16 336 112 168 108 212 129 90
218 464 243 -325 -11 340 107 163 103 212 129 95
204 448 242 -340 -11 355 107 168 108 202 119 85
194 433 238 -325 -17 347 98 158 99 207 129 90
179 433 252 -313 -20 337 103 158 99 202 121 85
194 428 233 -306 -34 344 113 163 103 202 121 81
199 443 241 -310 -17 332 103 154 94 207 126 85
194 443 246 -319 -20 344 113 159 99 197 116 76
179 437 256 -317 -24 347 113 159 99 207 126 85
179 447 266 -307 -37 348 108 149 89 207 126 90
184 436 251 -312 -41 358 108 154 94 192 111 76
174 436 260 -308 -32 346 113 154 95 202 121 85
199 436 235 -304 -40 349 108 144 85 197 121 85
179 435 254 -316 -16 337 113 149 90 188 106 71
184 445 259 -306 -36 346 113 149 90 197 116 81
194 430 235 -313 -35 353 108 144 80 197 116 81
184 421 234 -311 -18 334 108 149 85 188 102 66
194 440 243 -301 -22 329 108 149 85 192 111 81
194 440 243 -316 -22 344 113 149 85 192 116 81
165 424 258 -316 -22 343 113 144 85 192 116 81
174 429 253 -294 -44 343 103 140 75 197 122 85
199 428 228 -301 -36 343 108 140 75 188 112 76
199 433 232 -313 -12 330 109 144 80 188 112 76
179 428 246 -316 -14 334 104 135 75 192 117 76
174 433 256 -304 -31 339 100 135 70 178 103 66
179 437 256 -303 -38 345 100 135 75 177 103 66
179 442 260 -307 -36 348 109 140 80 182 107 76
179 437 255 -310 -38 353 109 141 75 187 117 81
179 437 255 -307 -36 348 104 131 70 182 112 81
165 427 260 -307 -36 348 100 126 66 182 107 71
155 418 260 -295 -45 344 104 136 71 172 98 61
165 431 264 -285 -50 340 109 136 71 182 107 71
180 441 259 -298 -47 349 104 136 76 182 103 71
180 440 258 -310 -37 352 109 136 76 182 107 66
176 440 263 -309 -36 351 100 131 66 182 107 76
157 440 282 -306 -41 353 101 132 67 177 104 66
142 449 307 -296 -61 363 111 142 76 176 104 67
142 440 297 -294 -80 380 120 147 81 186 110 72
152 444 292 -289 -75 370 120 142 81 191 119 81
137 434 296 -296 -68 370 120 132 71 191 114 77
127 424 295 -284 -78 366 120 137 76 181 105 62
161 433 271 -274 -83 361 106 122 57 186 110 67
171 457 285 -296 -53 354 101 122 52 167 90 52
152 438 285 -312 -56 373 106 132 67 167 90 47
166 447 279 -293 -64 364 111 132 71 176 105 67
161 437 274 -305 -55 365 115 137 71 176 100 62
137 417 279 -298 -55 358 111 132 71 181 100 57
127 417 289 -276 -68 350 106 132 67 176 100 62
127 446 318 -270 -78 355 126 142 71 171 95 57
157 437 278 -285 -93 384 121 132 62 181 100 62
157 422 263 -294 -59 359 102 122 57 171 90 52
132 431 297 -287 -51 344 102 132 67 171 90 47
161 440 277 -280 -81 366 102 132 67 186 101 62
152 439 287 -299 -55 361 112 127 63 181 96 62
161 430 267 -294 -65 366 122 137 72 176 91 52
157 439 281 -294 -50 351 113 127 63 181 101 62
152 438 286 -297 -60 362 113 132 68 171 91 52
152 448 296 -294 -65 365 117 138 68 176 96 52
147 453 306 -299 -70 374 122 143 68 181 101 62
127 434 305 -299 -77 381 113 138 69 176 96 57
171 458 284 -280 -87 371 117 138 64 176 96 57
147 458 308 -313 -55 372 122 143 69 171 91 57
132 433 299 -301 -79 385 117 143 73 171 96 62
152 428 274 -281 -81 367 113 133 69 186 106 72
166 436 268 -288 -59 353 113 124 59 176 96 62
157 456 298 -301 -48 355 122 139 73 171 86 47
152 446 293 -306 -68 380 113 139 69 181 96 57
176 441 264 -298 -68 371 113 134 64 180 91 57
152 455 303 -308 -41 354 108 129 59 175 88 52
142 474 331 -303 -73 381 103 134 69 175 98 62
152 455 301 -307 -92 404 113 144 78 190 108 72
157 455 296 -302 -72 380 117 144 74 190 108 67
152 445 291 -305 -67 377 133 149 79 190 103 62
147 450 301 -297 -67 369 118 144 65 190 103 62
158 459 300 -297 -74 377 118 144 70 175 88 47
177 464 285 -306 -69 382 133 158 79 180 98 52
182 487 304 -318 -52 377 138 168 84 185 98 52
197 487 290 -333 -59 398 148 178 99 189 108 62
177 492 314 -340 -45 390 157 184 104 204 117 77
158 481 323 -333 -67 405 157 194 118 204 117 72
187 476 288 -318 -80 405 153 189 109 218 122 81
187 476 288 -330 -49 384 162 194 109 208 113 72
187 467 278 -330 -49 384 167 208 123 208 113 67
182 462 278 -325 -43 374 177 218 133 218 122 81
197 476 277 -321 -45 371 188 228 138 223 123 81
216 519 301 -335 -38 379 193 228 138 228 128 86
231 539 306 -367 -40 413 168 218 133 233 138 101
211 518 306 -384 -35 425 154 223 138 233 143 101
182 509 326 -364 -45 414 149 218 134 238 148 101
201 499 296 -344 -69 419 158 223 139 238 143 101
226 504 275 -349 -44 399 179 228 144 243 148 96
221 508 285 -364 -22 391 169 223 144 252 153 111
216 488 270 -364 -30 398 164 228 144 243 143 101
206 473 265 -351 -25 380 155 223 139 243 143 106
216 478 259 -339 -27 371 145 213 130 233 138 106
221 488 264 -346 -20 371 150 213 130 223 138 106
201 488 284 -354 -20 378 135 203 120 223 138 106
